Raman shift [1/cm];Intensity;intensity;intensity;intensity;intensity;
3278,000;374,34114;994,20848;627,75894;681,70782;1025,1635;
3276,000;-12,495185;327,82786;951,10685;913,70349;364,40351;
3274,000;-25,463435;694,39108;741,81749;865,98206;465,2599;
3272,000;-88,597178;465,34613;719,79889;735,40409;549,10787;
3270,000;655,0632;911,9985;644,97991;352,81099;977,48722;
3268,000;229,37133;795,26734;1036,6099;749,1397;838,89548;
3266,000;456,98836;898,96058;854,01399;678,44019;529,83517;
3264,000;782,92335;1239,9777;751,51911;705,05226;1288,4852;
3262,000;205,02061;1259,8977;920,41541;564,95013;1098,7025;
3260,000;329,73442;774,16015;373,01899;569,35205;878,25019;
3258,000;419,30609;998,45518;645,60325;652,90876;912,9482;
3256,000;278,73792;1001,1101;790,17988;760,49281;1044,2857;
3254,000;575,25022;905,24982;763,42943;1112,9484;730,78618;
3252,000;381,96421;778,48798;480,74084;418,77357;742,7514;
3250,000;180,36438;632,85801;814,00477;216,07496;647,13766;
3248,000;492,45463;1114,4371;700,46134;693,19901;798,3298;
3246,000;213,7931;1207,1644;662,0074;805,57549;711,3859;
3244,000;475,54014;647,2199;1031,0623;536,92851;799,75995;
3242,000;130,88997;700,16341;590,25975;950,33908;945,09253;
3240,000;232,89429;994,23968;666,29268;680,07946;804,20672;
3238,000;389,27212;782,17786;552,42804;519,89263;556,18029;
3236,000;186,84938;919,22779;292,21707;703,97906;746,41762;
3234,000;264,85386;944,56152;927,72389;487,35348;715,8656;
3232,000;-29,070278;567,52608;580,51116;425,78326;976,01363;
3230,000;162,27119;905,22105;439,5074;743,61304;544,09907;
3228,000;16,763611;912,12956;687,64906;580,63081;724,11922;
3226,000;340,38226;303,40541;69,810314;438,53771;1102,6607;
3224,000;254,53564;384,3811;1026,287;513,62787;783,86171;
3222,000;860,72294;581,50042;634,94325;633,16998;1239,1915;
3220,000;435,54019;553,78493;939,02599;424,40217;1137,9581;
3218,000;542,80061;508,73687;1047,7121;424,21227;328,84237;
3216,000;487,65619;707,68927;793,55822;373,37119;690,26881;
3214,000;224,2429;739,57794;587,22233;287,67517;548,5686;
3212,000;104,29574;637,61327;327,31883;578,96401;678,18724;
3210,000;-81,671692;751,22409;519,32244;616,83808;1035,5726;
3208,000;178,99569;1017,0832;621,10172;850,59064;557,27865;
3206,000;231,24645;411,46495;977,97738;254,70065;399,55611;
3204,000;725,09758;620,71902;457,79135;134,63198;703,71623;
3202,000;328,76443;1170,0963;856,49058;295,21015;705,85238;
3200,000;-48,761452;696,96734;522,97545;1048,354;530,6451;
3198,000;583,20525;589,48916;653,67655;412,06986;661,8496;
3196,000;285,09751;1010,4112;231,9634;565,86458;794,60374;
3194,000;353,00368;932,7353;759,44672;496,62169;391,40627;
3192,000;-51,289417;405,52977;115,1648;338,19187;319,18069;
3190,000;-144,2355;447,35798;1150,2893;852,39682;271,22421;
3188,000;30,031907;128,27059;596,66857;500,72112;783,58274;
3186,000;-77,016223;-23,91457;105,26201;682,63796;1195,9133;
3184,000;-34,720718;1116,489;134,45837;474,49504;616,41581;
3182,000;-107,53594;642,55416;105,27752;931,53448;645,33688;
3180,000;-34,950553;733,70012;269,69575;716,5997;1229,0831;
3178,000;50,873759;-61,712567;377,56376;328,17849;535,65515;
3176,000;-250,07636;248,85733;452,38332;804,74962;858,68163;
3174,000;-11,900666;603,97669;123,51301;216,21782;75,736927;
3172,000;229,41713;37,739058;493,95417;-215,36745;583,76312;
3170,000;-320,22797;539,14296;100,45446;697,85573;579,94493;
3168,000;429,97481;348,75981;199,34605;223,08791;584,65282;
3166,000;28,286035;198,63364;219,46032;385,48908;569,89542;
3164,000;206,47054;431,51366;219,77145;510,7654;568,16239;
3162,000;119,00357;148,09563;245,13704;398,93567;418,27528;
3160,000;-121,20085;476,38667;259,69385;961,66049;259,15301;
3158,000;417,95578;739,72746;372,66084;859,6122;339,72758;
3156,000;593,61917;954,37863;460,69383;589,3864;366,53617;
3154,000;96,659576;1090,1897;255,31121;621,49804;551,55233;
3152,000;517,3207;517,70574;552,61912;692,02692;508,48382;
3150,000;142,12076;721,38089;248,34728;757,00838;793,96094;
3148,000;115,6998;664,16618;635,90694;203,57525;479,23242;
3146,000;-5,1510395;657,69491;694,57034;418,07055;681,15949;
3144,000;7,8734402;629,61443;279,32092;541,8045;596,6775;
3142,000;-19,522437;564,38792;202,99441;437,23683;447,29276;
3140,000;127,32586;394,49002;760,01701;436,41522;379,67618;
3138,000;221,18594;957,28498;661,67559;538,33894;574,20713;
3136,000;143,67407;435,60703;576,88251;369,66494;534,16789;
3134,000;119,29873;567,90831;388,35222;506,05147;34,780721;
3132,000;110,25094;500,57723;334,17146;356,69827;275,68325;
3130,000;-178,69374;394,34769;475,61186;82,53301;608,40213;
3128,000;-275,95469;707,93124;490,15141;605,97199;172,92457;
3126,000;-82,13688;457,99263;363,2797;356,58817;411,66058;
3124,000;166,81205;449,53995;971,01589;459,55853;392,32972;
3122,000;233,94748;851,02367;570,41225;416,8848;430,93732;
3120,000;-378,37352;1065,6436;420,69069;651,25795;531,66167;
3118,000;179,75937;630,73913;116,05307;560,29844;458,59201;
3116,000;291,24406;817,39097;813,12593;475,1073;595,95;
3114,000;261,99858;914,40015;572,41178;637,41488;1164,5829;
3112,000;-26,165365;1204,3094;171,49967;815,06352;864,23083;
3110,000;173,66261;1431,3317;497,51415;774,66805;829,15963;
3108,000;-60,074924;1354,8914;729,63506;687,91969;1036,052;
3106,000;-221,15232;1512,3643;282,14977;512,14219;1286,2726;
3104,000;24,307969;1486,1319;692,71883;362,45399;686,24336;
3102,000;-191,9672;1599,2792;380,26417;779,41509;1022,7546;
3100,000;24,856583;1370,447;577,82423;526,84655;1141,0929;
3098,000;46,348889;1564,4524;580,93698;721,60224;1217,3002;
3096,000;95,442378;1441,0952;778,79436;931,86204;1269,3068;
3094,000;-39,464683;1596,9324;1067,9453;910,24033;1436,1483;
3092,000;-37,745287;1817,1648;758,07878;991,12236;1397,8532;
3090,000;108,74829;1857,9333;626,37895;1041,3511;1409,9074;
3088,000;33,073419;2031,8286;1303,2203;1608,2857;1565,8339;
3086,000;73,276383;2040,9809;1471,8763;1351,5934;1888,4499;
3084,000;9,1858717;2381,4489;1723,1405;1980,5272;2236,0679;
3082,000;-180,90209;2754,228;2169,5348;1938,7052;2828,0675;
3080,000;-145,5367;3078,3665;2551,0343;2430,486;3061,7963;
3078,000;-16,694047;3371,6886;2724,2343;2916,0519;3659,4871;
3076,000;28,124648;3883,9836;3674,0748;3341,2916;4223,6167;
3074,000;-16,47526;4549,5732;3784,8876;3765,1925;4489,8706;
3072,000;223,09059;4764,4196;4268,3156;4081,4452;4999,649;
3070,000;264,6177;5172,6458;4221,3594;4105,2139;5521,825;
3068,000;32,646344;5125,1515;4447,8668;4276,8462;5766,2254;
3066,000;155,31519;5817,418;4521,4707;4894,7549;5439,5144;
3064,000;53,609789;6214,089;4197,8178;4514,2809;5950,3591;
3062,000;21,038097;5562,7832;4937,6764;4834,6576;5668,6342;
3060,000;70,614496;5302,5545;4365,0813;4697,6095;5602,3527;
3058,000;31,438134;4898,0188;4189,8048;3954,4245;5042,4252;
3056,000;8,0858634;4603,4836;3974,0447;3904,349;5150,7816;
3054,000;-0,40204748;3781,1735;3448,1406;3654,5289;4471,3714;
3052,000;123,20535;3667,5547;3536,2798;3403,7719;4040,8298;
3050,000;0,23765046;3028,6073;3070,7395;2996,4941;3759,4655;
3048,000;135,85098;2681,7603;2753,6288;2565,5302;3435,9008;
3046,000;36,0187;2604,0437;2435,9106;1979,3641;2939,154;
3044,000;309,15063;2180,5849;2110,5431;1822,8081;2462,5855;
3042,000;121,27621;2335,7285;1893,6286;2064,4716;2413,9827;
3040,000;100,07709;2117,3561;1968,4204;1640,956;2443,4014;
3038,000;58,738174;2181,8264;1996,9485;1777,8082;2350,2683;
3036,000;23,004668;1749,9717;1922,1463;1532,3785;2035,7268;
3034,000;80,571678;1556,0271;1769,6451;1470,7362;1634,0453;
3032,000;-74,152174;1474,4292;1240,7491;1426,0347;1610,1932;
3030,000;-55,700388;1556,4535;1405,7349;1435,8435;1552,6182;
3028,000;0,49467547;1368,1084;1329,3388;1310,4722;1603,8965;
3026,000;199,73508;1519,0519;1342,5351;1251,7829;1626,3844;
3024,000;86,353286;1524,9062;1156,9057;1293,2833;1678,4513;
3022,000;42,70118;1812,2532;1205,2132;1273,9304;1558,8546;
3020,000;74,639994;1981,5265;1055,784;1060,3084;1588,7941;
3018,000;-44,210578;2119,0193;1179,7379;1236,8754;1893,6771;
3016,000;-102,52484;2460,7829;1531,8668;1145,7036;2122,6821;
3014,000;-65,114452;2724,734;1274,6582;1413,7485;2439,0519;
3012,000;-58,293817;3332,0357;1614,4372;1434,5557;2610,8308;
3010,000;-2,858521;3672,1657;1589,5195;1667,9898;2851,5529;
3008,000;5,9256592;3563,3423;1856,1296;1705,1138;2849,9957;
3006,000;67,667519;3506,2135;1807,5072;1679,4299;2779,5809;
3004,000;125,50527;3029,4569;1934,0992;1660,1131;2574,3793;
3002,000;-33,042323;2985,4576;1969,6169;1957,1502;2580,0609;
3000,000;-44,866339;2874,1797;2031,2832;2169,5079;2532,0017;
2998,000;109,86341;2748,2957;1984,5826;2051,2952;2607,7776;
2996,000;-133,06731;2916,4225;2022,9626;2079,1079;2592,2857;
2994,000;-35,149405;3092,8106;2311,7443;1928,643;2400,1573;
2992,000;185,01812;2843,4333;2342,6052;2043,6428;2546,0321;
2990,000;-64,116887;2462,6611;2190,2774;2012,2119;2543,1994;
2988,000;-73,532672;2749,0828;2131,3891;2211,8106;2592,5383;
2986,000;-213,57035;2760,0458;2499,8105;2159,06;2805,1885;
2984,000;-35,623335;2896,4925;2507,0444;2217,6281;3117,2762;
2982,000;17,043484;3198,9777;2676,2031;2575,4477;3123,697;
2980,000;141,03526;3427,6746;2783,6621;2957,8611;3348,4102;
2978,000;-49,585783;2992,0217;3014,9186;2939,3695;3316,2286;
2976,000;22,002306;3190,9337;3062,3089;2829,002;3366,1408;
2974,000;6,1248816;3045,0955;3018,6479;2838,1077;3543,9805;
2972,000;-7,7520009;3275,9897;3426,4462;3079,1923;3387,3645;
2970,000;-0,41975224;3431,4853;3171,3905;3133,6551;3488,734;
2968,000;41,804927;3201,3788;3510,113;3100,6645;3716,4691;
2966,000;30,780982;3324,4831;3321,4069;3218,7021;3474,3837;
2964,000;85,314588;3475,4576;3337,7354;3050,375;3730,3557;
2962,000;-45,86263;3427,9169;3457,2488;3371,543;3761,6014;
2960,000;-8,9397746;3543,1943;3360,8674;3519,5761;3985,916;
2958,000;52,860003;3260,7284;3512,4444;3355,6928;4003,9494;
2956,000;-41,89408;3228,5786;3411,4628;3302,7871;4004,1587;
2954,000;4,140794;3283,8666;3558,6129;3637,8914;3879,2825;
2952,000;20,400238;3000,3706;3678,3637;3724,3241;3838,2768;
2950,000;-64,570041;3216,9359;3845,8826;3811,7581;4106,634;
2948,000;38,412507;3083,4468;4072,1062;3603,2252;3888,4288;
2946,000;21,317053;3246,8935;4144,81;3959,4398;4259,7525;
2944,000;92,642595;3295,1805;4487,6387;3844,1535;4159,9039;
2942,000;83,018504;3254,295;4173,8638;3864,4452;4196,2509;
2940,000;-72,777738;3376,4194;4262,9794;4066,5612;4520,8115;
2938,000;-67,314167;3419,0477;4029,0976;3895,4055;4444,9519;
2936,000;57,650712;3912,6809;4210,6751;4162,4142;4704,6912;
2934,000;55,913453;4327,8162;4317,9706;4343,1371;4780,6935;
2932,000;-9,0195779;4576,465;4119,3783;3989,1314;4834,1014;
2930,000;3,7589637;4560,0985;4122,2166;4136,6945;5028,2195;
2928,000;-38,712426;4715,2785;4249,3381;4317,4568;5091,6975;
2926,000;-36,527032;4707,7954;4005,1996;4026,9805;4765,0421;
2924,000;98,744976;4311,9098;3935,9805;3988,9603;4823,4013;
2922,000;-59,794157;3803,8103;3810,9105;3803,2011;4489,6972;
2920,000;79,844425;3241,38;3715,9344;3747,4785;4299,8878;
2918,000;68,648076;3233,8337;3810,2357;3632,5933;4249,8493;
2916,000;-43,601351;2900,4388;3628,6509;3724,2489;4086,6945;
2914,000;-28,238477;2874,7983;3869,2858;3514,3305;3935,7366;
2912,000;-80,469831;2917,4398;3861,4458;3459,2891;3857,1345;
2910,000;-122,61773;2981,4671;3622,5617;3483,1775;3680,776;
2908,000;-21,392942;2804,028;3516,4139;3465,2607;3459,815;
2906,000;-17,181003;2771,4564;3104,8385;3182,5273;3597,0366;
2904,000;39,341858;2555,8524;3300,4978;3024,7959;3447,6855;
2902,000;36,142806;2554,2824;3071,6217;2844,2951;3298,9624;
2900,000;51,676904;2637,9861;2942,729;2928,6913;3145,749;
2898,000;-13,099282;2528,6018;2865,3747;2969,1108;2992,9029;
2896,000;101,76285;2456,2186;2872,8358;2730,4851;3061,1294;
2894,000;-13,630602;2397,3249;3017,9269;2579,9056;2954,5973;
2892,000;-0,68678076;2623,9239;2626,1405;2494,3427;2837,0432;
2890,000;-13,756365;2371,8099;2472,9871;2547,9128;2850,4257;
2888,000;-90,926948;2264,4083;2399,7422;2629,9055;2664,3564;
2886,000;-66,541592;2228,3685;2349,8176;2313,8194;2579,5971;
2884,000;84,069583;2191,6579;2386,7725;2396,007;2435,8138;
2882,000;26,713025;2140,437;2367,4402;2441,6959;2553,663;
2880,000;81,163487;2124,7175;2412,5705;2276,3671;2548,7732;
2878,000;71,990974;2095,8098;2291,3083;2235,47;2766,5202;
2876,000;104,55335;2069,6921;2313,1165;2395,6404;2336,6059;
2874,000;-7,4290923;2078,8689;2277,0744;2146,6285;2433,5559;
2872,000;-137,08753;2103,858;2204,4089;2233,2349;2472,7779;
2870,000;44,354608;2044,9093;2195,4797;2025,6352;2407,5759;
2868,000;82,013423;1977,241;1892,4385;1911,8782;2152,9502;
2866,000;-61,907054;1607,8421;1726,3794;1737,8133;1869,9965;
2864,000;-126,20963;1401,5829;1286,2879;1438,1203;1732,5017;
2862,000;-27,267018;1089,5643;1185,5467;1149,9525;1250,8923;
2860,000;-25,351701;959,5239;1113,3562;904,9169;1295,2286;
2858,000;13,141878;987,26294;1067,2072;898,64163;956,86978;
2856,000;-29,58121;765,24334;832,30746;861,62439;1099,229;
2854,000;-2,9420499;674,08936;751,68109;787,6529;958,4561;
2852,000;100,94598;629,03288;673,23665;801,83745;929,18616;
2850,000;-122,80995;617,99017;689,44132;543,48494;799,68723;
2848,000;-77,322568;405,6622;712,69585;501,39418;784,30257;
2846,000;-23,687983;551,40552;610,54187;449,16711;611,01179;
2844,000;-16,680553;429,7926;515,02636;480,4512;438,19669;
2842,000;-74,048624;419,07643;481,24614;472,49548;502,87327;
2840,000;-16,64769;316,70848;543,26382;327,06847;520,9593;
2838,000;8,6956965;283,54609;471,82435;255,20531;402,16405;
2836,000;-119,40313;274,81183;467,85216;428,5983;405,27045;
2834,000;-29,514816;309,23456;261,31334;367,84908;453,42031;
2832,000;75,544358;336,48765;198,70932;363,48514;438,66867;
2830,000;-0,43973769;376,68824;223,85118;286,44806;374,49879;
2828,000;31,682393;280,0734;160,13931;292,08587;301,12005;
2826,000;-122,11149;267,16336;286,00441;288,30898;263,17671;
2824,000;56,699068;249,38035;222,78948;83,163709;255,16336;
2822,000;2,7714245;235,47259;173,27964;313,17064;238,57733;
2820,000;19,624142;331,61447;167,41422;266,84448;320,55398;
2818,000;44,268338;203,72021;287,79849;142,04006;258,44326;
2816,000;-2,648047;129,76927;156,95505;122,23966;318,33516;
2814,000;-110,41489;129,78973;115,99575;252,65414;298,75076;
2812,000;-83,880593;80,366994;174,47803;163,7632;183,44762;
2810,000;-28,588298;183,89344;169,20113;180,37843;180,26554;
2808,000;-27,493927;111,0053;123,10523;158,78566;247,54871;
2806,000;40,659464;81,245406;161,54752;167,39533;277,29119;
2804,000;113,76738;187,1929;219,74752;84,455149;201,81525;
2802,000;-45,907418;76,761396;151,78806;85,506571;200,6084;
2800,000;-17,356746;36,098911;221,35257;41,424313;266,7293;
2798,000;-60,088261;107,64499;258,53402;250,07651;229,00894;
2796,000;-75,930699;231,10021;84,641541;145,29735;316,11379;
2794,000;26,634709;276,4565;190,75239;93,029534;251,63386;
2792,000;-45,688885;175,25833;16,355803;96,28759;275,96026;
2790,000;-8,676242;185,68188;213,00736;161,56746;274,64566;
2788,000;23,613679;205,60459;233,47392;189,23661;209,6337;
2786,000;3,7040515;183,04241;198,47451;176,32062;212,06754;
2784,000;16,812538;230,34738;230,83077;190,53486;261,23616;
2782,000;92,379745;114,46978;185,44448;254,25833;213,6093;
2780,000;-21,309806;155,54859;259,04778;109,80957;235,6068;
2778,000;-7,4513758;190,15837;281,24116;119,98231;184,03418;
2776,000;49,083756;249,9357;111,64263;226,49432;276,32596;
2774,000;4,7736856;180,64197;224,05666;217,98595;118,86386;
2772,000;28,060152;183,12837;135,00457;151,07562;219,96156;
2770,000;-7,5700347;76,077224;265,70175;291,99395;406,7959;
2768,000;61,774707;212,25688;279,35264;134,5945;318,72563;
2766,000;20,520082;216,16774;234,27362;208,67686;299,95209;
2764,000;-19,890299;275,61623;188,92872;272,57566;341,03001;
2762,000;-37,955215;343,56984;228,75979;325,91616;191,90448;
2760,000;6,2356075;409,04903;344,21669;212,74217;379,27918;
2758,000;-84,334147;276,01549;269,46432;170,66608;373,95127;
2756,000;-103,88395;221,9851;292,71778;250,00391;340,72571;
2754,000;-5,3129452;227,41749;158,31259;226,52391;323,08596;
2752,000;-46,005915;219,41311;260,66827;274,69845;282,03178;
2750,000;-74,145917;158,8545;204,05102;125,40409;316,5419;
2748,000;-126,34464;236,37713;130,45097;288,85812;125,51051;
2746,000;-1,140441;156,89844;147,57389;136,29515;76,372219;
2744,000;-26,604081;222,78335;85,920133;212,76352;279,98212;
2742,000;-82,841183;272,63808;163,22121;175,6081;207,46643;
2740,000;-40,700919;165,15073;34,340762;207,39588;255,38052;
2738,000;-151,62982;161,73368;101,53805;112,09378;234,1457;
2736,000;-19,219993;296,15571;222,53803;254,67398;139,05578;
2734,000;-87,899412;239,32372;15,700234;127,2189;185,90576;
2732,000;-12,783983;103,35747;191,50901;181,24817;109,18169;
2730,000;54,524206;141,02567;41,624895;185,01328;61,646369;
2728,000;15,715574;80,69785;128,99403;166,68901;203,68974;
2726,000;39,573876;143,54116;161,23131;123,03231;219,17135;
2724,000;22,545102;171,05661;46,273328;132,04875;121,00569;
2722,000;113,24796;169,42242;-13,352025;51,078715;133,22274;
2720,000;36,163926;117,8207;60,212095;80,650145;91,061108;
2718,000;-18,29708;242,17235;299,85896;141,38036;69,663994;
2716,000;1,7626818;189,03944;258,72706;86,081097;294,45863;
2714,000;-34,010539;112,7988;165,8055;103,7944;247,24201;
2712,000;27,586734;105,77952;150,9124;165,16273;181,8134;
2710,000;35,148095;128,9564;16,092305;128,29114;219,84578;
2708,000;-6,6755199;122,51472;129,27489;75,076004;189,68116;
2706,000;3,970942;101,62271;104,3027;147,55454;113,10195;
2704,000;-7,7171585;156,54062;65,647726;116,56877;147,26155;
2702,000;-45,694706;85,430318;134,61717;137,31982;103,65637;
2700,000;5,5670389;64,619081;50,478904;-0,99784942;132,77172;
2698,000;43,958818;117,28046;23,662822;35,742982;208,49148;
2696,000;-60,952918;28,221068;-7,9831528;-17,221179;102,93539;
2694,000;32,30318;71,009677;-17,995424;93,672897;124,60549;
2692,000;-43,95398;35,621482;11,206925;30,502172;113,94015;
2690,000;-39,88843;28,641248;63,310426;95,48702;160,27412;
2688,000;-11,606935;14,056001;60,608679;121,48466;37,102343;
2686,000;-25,617013;-17,334101;108,24017;68,973391;145,42012;
2684,000;-66,989819;-120,60949;17,955701;75,925448;10,593026;
2682,000;44,348152;-20,416287;-10,990502;-17,738263;82,281323;
2680,000;11,017935;93,940179;47,01113;22,824497;-24,28026;
2678,000;-65,54587;-45,423581;38,661798;-8,8038939;-12,894317;
2676,000;8,6343424;-7,6562926;-19,317793;102,30161;39,043715;
2674,000;-42,132205;-6,1924231;112,08646;59,843849;76,615514;
2672,000;20,805588;52,705713;35,825114;6,3146737;71,526369;
2670,000;7,5271496;-2,3175214;-11,119998;-32,992864;27,803873;
2668,000;30,245486;12,622746;65,627679;46,055243;35,855782;
2666,000;98,687124;-43,665192;113,2744;26,582734;27,23094;
2664,000;27,677038;35,471775;70,707876;16,459981;88,172482;
2662,000;38,820209;2,5414416;13,988259;1,5717745;45,276584;
2660,000;-5,1586807;79,659404;30,77043;-31,838401;43,340506;
2658,000;43,040245;23,047782;26,712081;-15,344796;59,133765;
2656,000;-51,493377;25,841134;-7,4244802;-10,711589;114,12979;
2654,000;-4,4100685;28,686398;23,098652;-12,533055;69,129148;
2652,000;-7,894499;-34,361925;19,739122;7,9178287;34,316783;
2650,000;-31,30269;1,9133332;61,002761;90,497872;82,201754;
2648,000;6,3320977;-49,320321;-12,865479;65,706388;158,46192;
2646,000;-69,547141;63,282838;-8,2744611;16,349712;89,828013;
2644,000;-45,687494;33,126993;17,904203;-6,1318932;-13,312855;
2642,000;-41,162485;44,694231;-2,2748243;87,447059;33,299831;
2640,000;18,40016;10,643015;150,72671;-19,020698;93,433998;
2638,000;-8,1346626;38,840326;64,157873;79,058376;72,613819;
2636,000;-31,535495;67,43039;23,447947;43,361634;106,6267;
2634,000;23,599136;88,571286;53,219273;25,630571;108,07784;
2632,000;-20,078068;32,642968;22,548298;-4,661327;116,08904;
2630,000;-55,860478;53,670124;34,6879;14,280952;37,9021;
2628,000;-36,671184;34,504502;103,98078;19,699179;-16,444879;
2626,000;-36,771733;80,73331;134,79848;49,200509;147,91332;
2624,000;30,894358;107,25974;-28,903475;79,002387;145,60691;
2622,000;14,489234;56,621252;83,762581;-40,457815;117,89402;
2620,000;-1,7209447;55,439566;-23,489184;12,735016;103,70458;
2618,000;-54,431318;32,886632;-10,835719;-11,70015;84,502332;
2616,000;-17,100358;17,661775;132,84549;26,900339;51,59249;
2614,000;-9,7305744;108,49312;110,57918;50,656247;46,617329;
2612,000;-42,444795;117,36138;47,287095;22,368635;44,403222;
2610,000;-9,0122964;86,945269;61,155483;29,62279;-15,447365;
2608,000;-45,259821;102,20944;39,933877;35,421129;62,95934;
2606,000;-8,1241325;119,04016;127,51845;60,570479;118,01141;
2604,000;1,6422478;90,705853;77,35759;96,480735;38,58077;
2602,000;-96,12586;98,751744;50,17605;16,317261;79,016882;
2600,000;1,6405276;101,74784;96,927422;3,8704961;97,470161;
2598,000;-40,740011;130,26005;34,816256;64,686949;116,88791;
2596,000;9,2868787;51,136138;86,382513;33,908535;65,759746;
2594,000;-8,4949659;127,26492;103,46791;23,272738;130,42034;
2592,000;-51,920547;138,57285;57,401585;36,30276;48,562605;
2590,000;-4,8293989;141,15329;110,73543;85,845094;116,1818;
2588,000;-35,942053;140,035;61,442061;62,738493;87,963131;
2586,000;25,665143;98,491605;75,04343;39,799867;175,16363;
2584,000;17,880686;160,43429;75,311194;36,59674;155,98423;
2582,000;18,058961;69,946466;78,940259;99,058947;132,91526;
2580,000;-65,542386;93,452973;102,15385;117,30547;94,410798;
2578,000;-42,127862;113,75335;22,9692;71,307538;187,94024;
2576,000;14,303437;100,24407;158,04642;81,635293;86,999997;
2574,000;-28,030003;138,6444;80,932357;76,34012;135,50605;
2572,000;-4,5489792;110,66698;46,95173;24,567962;87,323941;
2570,000;-20,751555;133,4339;35,733629;-15,174433;107,59507;
2568,000;16,690776;151,02224;62,228271;60,43301;118,61324;
2566,000;14,003489;80,150614;45,735551;16,944732;62,711293;
2564,000;12,760181;72,9632;112,7409;30,304503;149,66669;
2562,000;29,506317;67,219943;20,40505;44,764268;102,75436;
2560,000;-11,773756;86,741799;32,961778;53,328026;41,114615;
2558,000;12,242444;2,4642025;41,710633;-16,575242;103,7184;
2556,000;-24,965903;63,845186;30,586712;-5,8318525;86,953956;
2554,000;3,4282763;11,728427;150,21807;40,075771;71,734546;
2552,000;-7,1606291;101,65956;45,063042;56,52446;105,19347;
2550,000;-3,4821669;40,015392;69,561161;64,278442;62,070891;
2548,000;7,116938;49,449961;55,137456;69,544294;52,259567;
2546,000;20,187375;138,53115;87,53953;101,52554;57,885766;
2544,000;-44,560982;64,974415;23,296549;70,768035;79,248493;
2542,000;-34,220714;49,880847;83,221394;32,719697;47,434343;
2540,000;4,388527;133,39234;21,869494;165,2149;116,60251;
2538,000;-16,566777;74,195145;92,694552;136,24579;1,7037212;
2536,000;-36,757638;55,06843;12,686187;98,030923;73,065799;
2534,000;-20,651168;66,210669;90,199611;57,259799;59,777674;
2532,000;-44,2247;28,576233;35,87031;54,988696;45,673642;
2530,000;-49,555754;102,37962;73,151741;58,24374;31,381361;
2528,000;37,103563;76,27739;61,801607;49,87869;76,013395;
2526,000;-15,92817;80,569908;65,944883;104,28025;50,552754;
2524,000;-8,6299781;37,539928;83,826871;43,388153;61,130207;
2522,000;-11,571402;37,105172;35,3428;-46,205215;46,024669;
2520,000;1,4146204;-8,6011346;52,620534;0,41502434;49,672667;
2518,000;-23,454161;64,185823;16,440004;36,366323;77,335691;
2516,000;25,827934;34,792718;27,587295;55,000084;134,51975;
2514,000;-11,898064;39,139933;-10,739999;3,1688266;19,90385;
2512,000;18,44744;48,642061;36,675771;76,568363;-0,61866321;
2510,000;-28,678654;55,536757;56,43677;-37,734371;54,389157;
2508,000;-32,066507;58,950056;64,3946;62,22879;86,274152;
2506,000;-15,336716;0,78643411;34,185143;37,592178;17,033935;
2504,000;0,57658761;7,291365;8,9881394;55,447403;27,325257;
2502,000;-19,962962;40,544102;100,48577;-14,268285;46,175072;
2500,000;-0,053023775;58,011632;30,620406;13,010251;22,176427;
2498,000;-4,2257234;72,097828;37,318399;87,786718;76,057511;
2496,000;-33,233364;50,955825;13,141673;35,343094;75,908841;
2494,000;30,853924;16,932228;55,616679;44,607779;108,34131;
2492,000;-47,85313;118,79269;48,741464;1,1404891;47,31795;
2490,000;-68,935936;76,436725;45,273046;45,206706;28,381255;
2488,000;-69,721723;3,055169;4,0460347;54,465956;54,003265;
2486,000;-38,380086;73,131055;91,507751;36,429685;46,452385;
2484,000;-24,175931;32,90954;92,862267;52,425192;50,100831;
2482,000;-22,32543;57,980504;56,080266;61,358961;79,592114;
2480,000;-12,580928;96,114354;70,884277;62,127532;73,870829;
2478,000;-43,76034;44,870926;32,174868;54,807401;86,932145;
2476,000;-57,359054;36,451432;55,184606;24,652435;67,531877;
2474,000;-71,660883;54,19694;52,486109;85,141252;45,808218;
2472,000;6,4546316;26,8798;71,00444;73,590952;94,521141;
2470,000;10,216862;49,67325;49,852332;39,457647;84,785627;
2468,000;-16,305327;67,576656;33,094936;27,578764;13,20122;
2466,000;5,4098469;61,441766;39,689421;20,092795;44,802187;
2464,000;9,2339601;19,534929;55,1884;65,900551;113,99664;
2462,000;-1,4903316;28,546703;70,349244;37,077346;21,458276;
2460,000;5,3015417;21,529651;62,199273;4,7879196;24,607284;
2458,000;-8,6694715;56,204895;39,664746;5,7819944;33,137548;
2456,000;-5,2767642;41,693102;-18,031902;17,684389;55,057243;
2454,000;-17,297471;52,642712;15,580534;34,182871;77,848184;
2452,000;29,408254;41,90562;47,277209;0,3059355;86,319804;
2450,000;0,42497825;26,739331;37,856948;73,048087;100,44044;
2448,000;19,827602;38,24237;36,774554;11,203328;42,792325;
2446,000;-26,186859;58,554103;3,3812003;68,511381;8,2291473;
2444,000;-16,970185;41,957308;46,935299;64,159398;-23,62916;
2442,000;-20,615249;34,799548;-20,732404;63,089895;70,778275;
2440,000;-15,136814;-21,199937;-3,252452;-14,427999;69,202977;
2438,000;-11,318151;34,709877;48,120552;38,684053;53,792505;
2436,000;6,1693029;15,068072;-1,1417819;-8,9336595;-8,8748942;
2434,000;-16,564996;66,266823;31,432353;-26,683598;58,678709;
2432,000;37,657767;-27,416662;35,995594;-37,624547;36,729604;
2430,000;-26,347755;-38,949766;-2,7936461;26,818829;10,097454;
2428,000;26,426516;24,100949;53,387205;20,550811;26,163995;
2426,000;25,803424;14,253169;-0,20645737;-1,4617917;40,686716;
2424,000;26,845945;-14,217891;33,802544;-12,551275;71,911594;
2422,000;-17,709808;-56,018406;-9,2484907;-40,303791;42,770139;
2420,000;4,5466666;-16,789844;50,446549;-23,97198;61,035536;
2418,000;-4,2617693;46,972922;53,647754;24,151256;49,09507;
2416,000;-49,326199;8,5193433;54,154391;-4,6557885;3,3333616;
2414,000;-1,0498921;-30,733276;-39,622247;1,3323852;-13,713332;
2412,000;-21,303586;-0,63151858;-8,5104693;-23,229542;43,629787;
2410,000;-39,604673;-0,96106784;-0,059606757;15,292153;-35,833278;
2408,000;-45,232746;12,281665;-10,088112;-10,806;32,673783;
2406,000;-22,443736;-5,8387393;-38,057613;-46,156444;9,7789297;
2404,000;-10,325669;-9,4877564;21,353534;-25,353943;-0,64228562;
2402,000;-18,464116;-9,6228319;-42,931381;-25,256331;31,319908;
2400,000;-18,815946;19,962781;-9,3817752;-5,4387195;-31,079101;
2398,000;34,296554;-3,9258008;9,8168989;27,993675;19,060843;
2396,000;-5,9133517;34,286413;-6,8173711;-13,113574;-35,833187;
2394,000;-3,5139771;-38,816999;18,337422;-29,366251;-32,477555;
2392,000;-29,188787;-16,630437;-38,788626;17,233977;-13,969736;
2390,000;6,6415998;13,86815;-18,621083;-46,634661;-14,832824;
2388,000;-28,122484;0,28272405;-12,242834;11,958761;-32,679962;
2386,000;-8,7660473;-1,7449419;-17,14826;-10,666434;-20,093652;
2384,000;-15,682417;-17,196783;-88,438552;0,50014544;-46,259814;
2382,000;-26,10886;0,34193922;-89,100895;8,5975648;-32,080171;
2380,000;-39,182005;-7,9039929;-48,332537;27,118726;-18,77848;
2378,000;-19,920499;-22,557618;5,6333987;45,86418;-45,784702;
2376,000;-4,6413813;-14,514364;-20,349637;-39,356378;-32,775518;
2374,000;-22,009007;-30,33595;-36,539894;-30,073328;5,512371;
2372,000;-24,216037;13,781661;22,865204;6,9715925;-11,192351;
2370,000;-26,708342;-10,05997;1,2735808;4,1432488;11,402208;
2368,000;-8,9768281;-33,744827;-10,641202;10,251485;9,9647887;
2366,000;-5,4055012;-45,634;-9,9087117;-37,916707;-14,147313;
2364,000;25,220925;-15,434687;-32,103913;-104,20821;-6,5490791;
2362,000;1,7833229;-28,990177;41,662313;-61,277907;-85,029411;
2360,000;9,3707431;-43,883312;20,583934;-28,574;-50,544035;
2358,000;-20,520473;-2,3612386;-20,336529;1,8914122;-37,169273;
2356,000;-5,8800962;-25,532012;-48,98496;-7,6907648;-25,797262;
2354,000;-47,525038;-28,525965;12,400779;-22,860694;-77,025753;
2352,000;-65,167754;-52,132504;19,190273;-15,650682;-9,2136239;
2350,000;-9,5503156;-32,76724;11,062789;-12,456415;1,0195068;
2348,000;28,023803;-42,036194;-7,0551144;-29,572488;-14,323957;
2346,000;-6,7917773;-77,319233;-0,10879806;-42,662135;-20,670174;
2344,000;-23,533164;-36,995016;-17,845917;-25,182613;-55,616785;
2342,000;-4,7385295;-29,015621;-55,737551;16,599963;-43,332075;
2340,000;-59,400819;17,752244;-34,486805;-105,59966;-37,824988;
2338,000;-66,441198;-37,594438;-10,444824;-94,321825;-19,409195;
2336,000;-3,8900188;-103,62508;11,695585;-32,460758;-53,932136;
2334,000;-23,481581;-62,852983;-71,194922;-8,7554595;-93,126112;
2332,000;-7,9244651;-45,407629;-68,529972;-13,850623;-60,282769;
2330,000;-2,2005937;-69,5219;-31,306854;-43,651142;-85,541218;
2328,000;29,63879;9,4601795;-5,4585318;-55,299977;12,033404;
2326,000;3,6273722;-44,598661;-5,839258;-38,341842;-12,337799;
2324,000;-11,05492;-69,145829;23,176945;-20,504605;-54,377454;
2322,000;-22,192373;-21,773714;-18,527643;-58,251233;-59,633882;
2320,000;-8,187401;-24,801351;-48,317838;-85,491223;-38,930147;
2318,000;-33,965945;-44,305197;-37,192122;-1,0740792;-35,710502;
2316,000;0,60414092;-66,087822;-20,76808;-23,658284;-61,270316;
2314,000;-48,491713;-70,399308;-67,649108;-75,010142;-1,6231099;
2312,000;-29,769218;-42,61917;-31,935249;-48,630894;-7,248479;
2310,000;-34,226722;-47,766616;-41,995861;-84,271042;-36,560916;
2308,000;-64,721434;-6,1942965;-51,503707;-71,968158;-62,920505;
2306,000;-35,697116;-50,264091;-67,626628;-19,937874;-41,965698;
2304,000;-14,332887;-82,843026;-86,515893;-62,965274;17,125715;
2302,000;-5,0967604;-48,012122;-34,216298;-58,668446;-86,510414;
2300,000;7,0488333;-95,687242;-113,34982;-94,813439;-61,871937;
2298,000;-27,123019;-86,038841;-17,833159;-19,764932;-100,86944;
2296,000;-48,128362;-44,068734;-44,01304;-83,728428;-64,375492;
2294,000;-20,693404;-80,545282;-36,076683;-100,02514;-40,566617;
2292,000;6,7446853;-156,828;-43,872826;-36,487596;-66,310321;
2290,000;4,4486044;-47,406667;-38,970329;-36,76968;-61,402413;
2288,000;12,494014;-88,438649;-64,015276;-95,494465;-83,450377;
2286,000;-9,9882774;-29,72977;-67,508259;-101,13457;-28,773304;
2284,000;-1,8990245;-116,80486;-19,115235;-62,778231;-73,472947;
2282,000;-6,792605;-72,723468;-59,219248;-107,42351;-41,880897;
2280,000;22,392835;-78,639994;10,054714;-38,428629;-45,230481;
2278,000;9,3737812;-83,028379;-36,371074;-74,799435;-60,208795;
2276,000;27,60771;-96,846383;-20,88259;-120,21509;-75,707411;
2274,000;9,6585755;-97,17862;-38,692739;-62,394675;-46,76799;
2272,000;25,314061;-38,170894;2,1140249;-111,88413;-38,072845;
2270,000;-16,448546;-60,054234;-89,852651;-79,353184;-81,554061;
2268,000;-31,093578;-72,542647;-93,740431;-76,567243;-49,168497;
2266,000;-3,546853;-93,924953;-63,996692;-90,455413;-39,720631;
2264,000;0,54707583;-42,770739;-71,66549;-40,740916;-71,187627;
2262,000;6,5984024;-78,554;-41,893488;-65,272304;-58,36073;
2260,000;-8,1313641;-84,78874;-72,356228;-54,499347;-84,083021;
2258,000;-1,5940786;-108,50312;-65,109623;-11,35319;-39,144309;
2256,000;12,628775;-44,601058;-56,87408;-74,338793;-92,592248;
2254,000;-39,126488;-76,692393;-60,279874;-74,89065;-85,315993;
2252,000;-8,4059522;-101,52326;-58,361933;-60,991609;-72,820313;
2250,000;-51,116217;-38,700125;-30,413509;-53,144268;-71,852988;
2248,000;-19,252013;-58,087677;-63,91551;-79,243917;-16,528423;
2246,000;-35,69066;-60,002659;-43,874382;-61,567909;-48,159059;
2244,000;-25,754083;-55,014614;-46,658011;-35,107447;-72,003049;
2242,000;-50,941076;-49,304262;-85,539358;-39,821593;-71,282534;
2240,000;-17,828234;-65,291027;-73,476776;-27,760142;-107,25005;
2238,000;-38,059212;-80,698158;-110,94188;-35,803478;-45,614;
2236,000;-55,305999;-85,18739;-88,444322;-45,375404;-82,077751;
2234,000;-20,114091;-70,572726;-52,751521;-52,378954;-66,017588;
2232,000;-27,739375;-51,06357;-35,263182;-73,893852;-68,136075;
2230,000;-39,360268;-63,967344;-44,752632;-65,579101;-32,419778;
2228,000;-32,65639;-92,83268;-35,553313;-28,891767;-70,298323;
2226,000;17,866553;-54,77071;-70,755337;-71,861286;-94,019196;
2224,000;-73,440918;-44,580176;-65,048323;-67,806172;-66,471816;
2222,000;-19,922446;-16,208287;-89,868622;-48,1494;-19,486417;
2220,000;-21,107884;-53,650915;-56,895363;-31,069437;-33,73651;
2218,000;-34,781493;-100,21729;-54,312382;-105,47351;-57,751091;
2216,000;-84,816887;-79,021417;-27,891303;-70,79149;-68,504617;
2214,000;-17,040281;-54,195326;-30,848674;-55,765454;-74,809871;
2212,000;-38,703177;-72,056215;-35,228491;-61,486311;-74,097274;
2210,000;-34,099307;-48,963032;-41,403358;-79,257626;-78,804949;
2208,000;-63,933303;-68,411502;-59,402289;-54,7371;-122,65497;
2206,000;-52,400015;-94,668318;-72,626494;-67,11369;-104,06462;
2204,000;12,490586;-29,667186;-48,252494;-69,131837;-63,966389;
2202,000;-18,553494;-57,214754;-41,948701;-60,047058;-70,725414;
2200,000;-24,37659;-40,337711;-74,265106;-59,594765;-43,378269;
2198,000;-14,833068;-29,836076;-39,240015;-91,858054;-53,129232;
2196,000;-1,2833791;-37,806212;-68,540348;-64,367756;-75,522121;
2194,000;18,438417;-42,060775;-44,146958;-39,299823;-45,374946;
2192,000;-0,64447173;-44,369619;-37,906982;-71,357098;-53,720409;
2190,000;-8,2725014;-50,280266;-41,261192;-53,91231;-63,984796;
2188,000;-16,177793;-13,676938;-53,152265;-40,294109;-45,764344;
2186,000;-13,357787;-43,853712;-81,155013;-45,062136;-75,282701;
2184,000;-22,113674;-58,457991;-67,491412;-68,174436;-62,508111;
2182,000;-39,680756;-79,454225;-75,660764;-53,729674;-86,054333;
2180,000;0,74547544;-78,856176;-59,062544;-79,664666;-62,063247;
2178,000;-24,588962;-50,541184;-62,678763;-33,77273;-19,092564;
2176,000;-20,99213;-86,717803;-34,581186;-82,301616;-48,356131;
2174,000;-5,3855195;-82,113191;-60,879418;-52,817311;-72,179257;
2172,000;-1,0946857;-51,526708;-63,228666;-60,294769;-61,118581;
2170,000;4,6506799;-58,328429;-54,12557;-78,616622;-80,777914;
2168,000;-10,462207;-69,576456;-58,935987;-58,210386;-79,12867;
2166,000;3,7627808;-45,539326;-97,610688;-40,611844;-51,113246;
2164,000;-15,18425;-65,960881;-53,30935;-98,265709;-87,726484;
2162,000;-15,96574;-70,986864;-72,561268;-42,748031;-82,216191;
2160,000;-2,3943124;-40,889105;-30,977243;-46,747815;-70,600568;
2158,000;5,49702;-88,17574;-47,294244;-87,984925;-60,569755;
2156,000;-22,865232;-44,656317;-48,10086;-43,046492;-49,110634;
2154,000;-21,010579;-67,561935;-73,969266;-53,5344;-66,707955;
2152,000;-15,367241;-51,548432;-65,971016;-68,645717;-66,062549;
2150,000;-20,623084;-68,207108;-22,146574;-64,249346;-41,403946;
2148,000;-13,455384;-94,476833;-59,166591;-76,103936;-51,753366;
2146,000;-30,406575;-73,239269;-76,864869;-88,927494;-77,69341;
2144,000;-13,968839;-65,352447;-71,6076;-45,094483;-59,576667;
2142,000;-4,6290455;-65,524252;-54,395114;-64,706556;-40,699837;
2140,000;-11,485335;-72,305823;-79,568677;-63,58703;-75,289074;
2138,000;3,2560754;-72,242725;-72,920359;-56,40383;-53,880675;
2136,000;0,99731951;-86,530578;-55,162544;-68,283035;-93,16035;
2134,000;-15,073018;-86,745771;-56,111297;-68,527501;-59,435194;
2132,000;-19,665872;-68,711598;-63,252909;-64,494542;-41,415518;
2130,000;-5,8836018;-83,869219;-81,826711;-58,257633;-69,977592;
2128,000;-31,53556;-77,952675;-8,6852166;-67,154457;-77,77395;
2126,000;6,2046819;-50,44194;-39,451489;-38,198418;-64,102985;
2124,000;-5,3411987;-53,618923;-66,067525;-62,104946;-59,505747;
2122,000;-22,114603;-29,030731;-57,227796;-26,284148;-45,400733;
2120,000;-31,6102;-63,991474;-73,000852;-88,135438;-58,334422;
2118,000;-19,97702;-56,272174;-60,783981;-72,003687;-38,640521;
2116,000;-34,631938;-81,236316;-17,416132;-51,184224;-59,91917;
2114,000;-31,955215;-73,477959;-50,571145;-54,302474;-66,924229;
2112,000;0,36710723;-46,157899;-23,736354;-44,186464;-27,929316;
2110,000;-11,657201;-77,989117;-43,581586;-66,778604;-46,969362;
2108,000;-4,4977331;-35,660301;-63,223126;-35,613906;-41,390464;
2106,000;-43,758221;-61,628189;-44,044982;-27,262112;-37,996771;
2104,000;-25,000512;-23,48004;-72,282631;-31,649612;-64,372946;
2102,000;-6,4225997;-62,485245;-33,748733;-20,114053;-63,277252;
2100,000;-9,4623752;-46,936151;-31,910281;-65,76281;-53,375227;
2098,000;-5,9969322;-45,499448;-34,567344;-47,290059;-48,658476;
2096,000;4,9668519;-20,15294;1,6817595;-51,67608;-45,260859;
2094,000;-4,477962;-40,452119;-36,761223;-26,773311;-44,647787;
2092,000;-21,449437;-57,396146;-14,904817;-44,840478;-44,92119;
2090,000;0,506223;-12,240764;-24,972282;-39,635726;-43,032489;
2088,000;6,2422388;-20,862695;-13,851962;-13,335581;-57,95319;
2086,000;1,0592867;-19,655954;-16,654457;-17,521503;-18,386925;
2084,000;10,216244;-14,023233;-22,823581;-32,463755;1,5461059;
2082,000;0,40475802;-28,250563;-28,112673;-3,0858427;-28,984289;
2080,000;29,785053;-38,186581;-27,48261;-20,411789;-34,56255;
2078,000;21,203004;-31,689597;-7,5062241;-2,9349295;-35,940684;
2076,000;17,665782;-6,602174;3,6878465;-4,2368912;-23,921921;
2074,000;8,918541;-23,266116;7,4586779;13,198671;-37,034434;
2072,000;10,16272;33,438572;-26,824189;11,585579;22,320646;
2070,000;3,1516335;4,0404244;16,039338;38,041345;4,5428996;
2068,000;42,114164;15,545438;12,381928;24,495275;-12,159848;
2066,000;12,884653;29,479976;9,7312303;23,808322;6,8972614;
2064,000;13,131701;24,623359;-15,509889;-11,648179;27,937701;
2062,000;6,2362937;13,947197;17,8082;10,107845;17,592352;
2060,000;15,631591;42,763114;2,4023688;3,4668465;20,176953;
2058,000;41,008718;34,367745;45,761252;26,068461;13,886191;
2056,000;19,522393;33,979235;23,338805;17,791005;14,871859;
2054,000;16,401554;23,638171;18,230289;69,988824;27,727671;
2052,000;10,520045;39,727939;5,1719524;31,845341;30,11594;
2050,000;35,093819;45,134575;26,562755;3,2928191;14,380872;
2048,000;29,347398;53,198772;72,731151;39,047515;28,334369;
2046,000;37,946306;28,170852;33,785528;32,296853;32,093872;
2044,000;47,645832;16,484255;30,227971;31,934605;62,658328;
2042,000;25,317614;33,654883;7,114222;63,275575;41,360481;
2040,000;30,389633;14,157153;12,006686;77,645954;45,955337;
2038,000;29,448897;65,680768;25,372748;73,514515;51,452003;
2036,000;21,79704;45,268041;42,130407;57,169507;11,57846;
2034,000;40,202335;48,523096;45,100949;85,284634;58,308263;
2032,000;6,8811161;69,884975;84,031453;78,387042;43,381099;
2030,000;39,787817;60,8041;96,714518;80,619848;40,918991;
2028,000;70,078643;54,387118;54,218303;90,915562;0,75844003;
2026,000;68,724106;63,067281;54,579503;80,911797;38,281658;
2024,000;59,600196;56,548883;40,230968;73,612576;52,56237;
2022,000;61,313641;62,209042;56,684637;120,08033;68,243371;
2020,000;49,487226;52,177204;87,815362;106,58394;58,312124;
2018,000;28,643118;89,64242;63,374247;107,51961;80,615609;
2016,000;65,347378;65,525004;57,072597;74,644819;68,20975;
2014,000;57,024962;95,133311;43,824921;100,35033;76,12199;
2012,000;48,724161;114,10427;66,192683;79,483484;33,178739;
2010,000;50,043799;81,611863;73,149938;91,156057;52,56249;
2008,000;42,585984;98,84371;73,38751;112,56719;83,880648;
2006,000;27,82928;73,379694;108,75846;113,58353;93,311817;
2004,000;62,835937;115,56532;81,560164;128,99798;83,530272;
2002,000;49,692705;145,81125;61,868327;73,97613;103,69472;
2000,000;107,64675;104,65969;69,977964;96,559654;92,644512;
1998,000;80,978556;131,47989;96,117925;101,11163;116,33987;
1996,000;91,412129;120,9767;72,219232;149,98685;137,9123;
1994,000;79,96717;133,88234;59,379238;119,36619;105,92643;
1992,000;67,174433;113,31208;87,950836;127,02592;120,59405;
1990,000;85,122275;117,24631;98,218431;111,66216;90,25438;
1988,000;88,340836;129,27238;84,620471;120,57309;84,014989;
1986,000;74,746998;115,95616;99,127391;86,9113;91,984318;
1984,000;65,057823;97,993167;111,52102;147,0138;108,65808;
1982,000;79,209018;120,2938;96,039804;102,62211;119,07627;
1980,000;57,549391;157,6394;101,07995;106,35493;113,1969;
1978,000;64,334007;162,10879;97,840256;119,62264;127,87037;
1976,000;74,800492;157,18918;95,790306;151,42915;113,60706;
1974,000;109,18982;188,43986;103,15024;132,04669;127,52342;
1972,000;85,485554;169,57781;103,42881;169,78318;120,86604;
1970,000;83,438437;166,29762;94,420961;137,28833;147,15935;
1968,000;83,488718;166,0732;87,23564;125,96003;189,57476;
1966,000;94,255447;196,12807;86,446299;183,59737;182,484;
1964,000;83,822303;150,63626;85,107948;160,51313;113,69741;
1962,000;72,442027;193,93753;118,80017;128,37965;138,39061;
1960,000;112,99022;155,6968;123,99684;140,65547;112,12732;
1958,000;83,225174;159,13962;133,9627;138,33588;119,27884;
1956,000;85,979389;186,32638;129,00966;159,38654;156,39675;
1954,000;99,953617;157,76099;152,49401;116,93944;147,88963;
1952,000;87,676074;156,40979;134,82331;127,67847;181,60107;
1950,000;94,975814;160,2362;109,74351;172,74544;152,09459;
1948,000;112,40166;167,89267;96,520786;177,60944;158,54977;
1946,000;100,81382;172,30185;120,73528;150,14798;137,57226;
1944,000;115,33562;187,73356;130,94014;201,78531;116,31151;
1942,000;113,46233;205,95732;160,51988;205,03487;127,07163;
1940,000;100,31113;195,83607;151,19482;175,89888;163,90211;
1938,000;97,227597;180,8847;151,31113;167,00565;138,06965;
1936,000;116,17623;214,02648;159,69223;151,17551;139,09643;
1934,000;101,37822;195,39704;156,532;174,97164;140,06089;
1932,000;104,5323;190,34228;139,29563;172,97677;159,71988;
1930,000;124,24219;172,14848;174,76556;184,06965;145,56527;
1928,000;131,15153;195,97141;160,76003;190,31025;153,6758;
1926,000;142,17081;196,91815;157,90383;194,87397;208,8099;
1924,000;115,06397;199,96632;149,32739;181,7899;185,69245;
1922,000;133,39961;186,70792;121,73655;180,16369;194,17758;
1920,000;136,70537;168,20075;182,57955;189,70067;212,6283;
1918,000;115,15474;169,6723;170,29668;163,34709;165,9162;
1916,000;127,27312;178,56737;181,81519;186,18657;205,01558;
1914,000;96,454932;223,72161;163,22334;201,49469;194,51833;
1912,000;127,0837;230,79546;120,58251;186,34579;179,50517;
1910,000;134,81885;208,38732;189,15808;177,42901;163,90657;
1908,000;142,10356;231,76801;184,74004;202,74158;172,91418;
1906,000;126,63764;202,37135;188,21406;176,16875;174,87005;
1904,000;162,27955;235,74814;162,97771;224,44049;185,10187;
1902,000;144,17951;212,95032;191,69708;214,18308;197,68193;
1900,000;155,08072;220,42793;194,05557;224,26819;212,31856;
1898,000;176,75023;221,99585;193,45469;269,44211;203,92887;
1896,000;140,7941;271,87431;153,29892;211,92974;214,66791;
1894,000;129,53644;206,45096;165,06343;227,2467;195,68823;
1892,000;183,56911;251,2079;181,42101;180,94002;195,13106;
1890,000;140,83902;221,26242;167,69931;241,60651;211,32426;
1888,000;133,28316;287,16261;211,5547;212,10263;186,59252;
1886,000;148,59778;237,93982;186,18129;230,21941;233,14179;
1884,000;139,03291;223,53026;183,40255;245,17038;233,08019;
1882,000;116,72584;252,22986;170,85202;240,58265;192,29263;
1880,000;133,6817;295,95401;241,17844;216,18571;237,23652;
1878,000;175,63728;225,2581;172,75348;240,45987;212,49334;
1876,000;149,01891;280,70025;221,85332;246,17806;197,96001;
1874,000;162,36099;252,82359;218,73321;279,11427;233,89935;
1872,000;159,07489;252,47399;209,2868;314,06095;194,75396;
1870,000;163,97818;255,54989;217,43077;225,72985;209,3003;
1868,000;107,31361;307,40627;196,01601;234,91838;265,70326;
1866,000;178,93536;263,71783;286,48608;255,83257;273,97998;
1864,000;151,96665;272,92371;241,1791;285,53804;245,22365;
1862,000;167,52417;270,61065;243,88193;213,66695;245,20738;
1860,000;155,16656;296,0494;196,40047;215,325;255,63282;
1858,000;159,26227;311,39395;218,39384;246,92697;250,35046;
1856,000;160,90161;309,12833;250,43799;271,60489;265,8901;
1854,000;147,96964;267,72189;229,84555;237,51777;225,24812;
1852,000;148,49007;310,44885;211,77912;306,73365;273,33939;
1850,000;151,11953;296,94063;229,54424;270,83578;230,20177;
1848,000;163,25821;274,66455;244,04363;325,28388;282,51727;
1846,000;178,61207;313,36983;254,89877;279,54644;234,48865;
1844,000;153,33247;323,014;231,45734;291,02693;218,17108;
1842,000;152,89223;287,39753;263,28838;319,10909;236,47758;
1840,000;184,4992;308,36524;294,96229;330,76825;219,59364;
1838,000;157,48725;310,51933;226,09772;303,81373;269,97252;
1836,000;178,1978;323,80287;255,17431;271,07365;278,66576;
1834,000;193,3713;321,11394;249,42421;307,25091;278,22555;
1832,000;178,93445;293,16919;257,79469;309,22691;281,01694;
1830,000;180,21756;334,9879;261,31806;348,43523;299,06396;
1828,000;187,21084;360,12613;279,67846;317,88194;280,96054;
1826,000;165,40998;346,11714;242,26344;324,33616;303,28784;
1824,000;168,0468;345,22104;236,91646;322,69358;301,00307;
1822,000;194,58143;342,11843;260,61832;315,77798;322,73121;
1820,000;154,18612;363,68455;269,22096;312,58641;267,18255;
1818,000;177,77875;306,23317;260,8309;316,20183;295,99806;
1816,000;192,56994;333,11186;281,88966;297,27687;266,11166;
1814,000;189,73923;376,21273;261,97788;315,0721;295,52396;
1812,000;196,91134;320,31059;269,32689;297,90114;327,76011;
1810,000;198,54984;342,94626;256,09195;326,62906;333,76096;
1808,000;192,27855;348,8796;269,84591;355,72431;320,2125;
1806,000;190,47651;322,08489;266,81696;288,75835;297,27219;
1804,000;202,1423;338,14608;288,98154;345,05846;289,49129;
1802,000;196,77086;346,39555;252,24378;359,47153;289,59049;
1800,000;169,4938;351,16548;262,024;334,49057;274,67026;
1798,000;236,44827;346,13549;267,55086;330,11523;276,19675;
1796,000;181,2959;353,34736;263,05474;343,34989;288,11111;
1794,000;194,78451;344,12932;272,31901;338,31085;306,46903;
1792,000;187,50152;309,97204;277,0599;341,3098;290,11883;
1790,000;203,24138;359,57194;248,41634;292,57498;277,95538;
1788,000;207,96969;357,66207;280,98653;332,89984;326,83406;
1786,000;218,39894;373,23156;292,01163;316,70894;264,13983;
1784,000;187,02139;334,22131;265,47608;327,22469;328,49052;
1782,000;202,85529;392,42256;310,00488;334,66558;327,64477;
1780,000;196,69005;362,58056;263,41465;341,24377;329,87811;
1778,000;179,98844;374,56413;314,99672;348,66468;356,60645;
1776,000;200,19377;411,05557;296,62233;368,44901;341,0757;
1774,000;196,11279;441,79752;316,92362;333,9913;352,6225;
1772,000;222,91544;402,22914;294,31615;367,19301;342,86877;
1770,000;202,31104;382,08998;295,79231;361,44064;315,91833;
1768,000;217,78565;386,4513;302,44992;355,44465;376,47549;
1766,000;196,09249;389,1868;301,97815;314,30443;351,64397;
1764,000;205,19306;388,69315;288,97224;343,18351;328,17014;
1762,000;208,9493;360,25153;296,52307;368,22667;381,1401;
1760,000;198,27896;392,72155;326,30973;375,28261;334,13452;
1758,000;232,49333;412,41847;317,53741;381,82948;377,64184;
1756,000;214,39881;408,80143;316,28324;387,6676;364,92813;
1754,000;215,83174;420,447;358,69221;410,21801;368,6101;
1752,000;228,43582;436,09039;333,48035;422,36638;398,13779;
1750,000;236,4179;407,43185;368,81677;425,21732;372,58815;
1748,000;229,79301;410,49226;391,80217;448,16195;408,42142;
1746,000;218,13569;449,82555;424,09555;468,32089;388,03275;
1744,000;223,44631;464,53104;447,40539;459,24099;456,64556;
1742,000;198,28021;523,02214;496,31201;533,84891;497,51719;
1740,000;200,32963;484,89385;541,06679;581,48044;504,94242;
1738,000;195,49261;580,07359;555,28003;584,34325;571,44125;
1736,000;222,82051;630,98657;548,59476;643,26025;629,26141;
1734,000;228,71257;770,86119;586,21503;692,66897;700,25194;
1732,000;230,58303;839,24568;638,68542;705,23361;799,81392;
1730,000;239,9355;1046,9544;665,0531;745,27563;865,59138;
1728,000;246,23036;1204,4146;704,27935;756,81522;911,50805;
1726,000;258,2432;1421,2773;745,51039;807,90451;1077,2007;
1724,000;237,33526;1632,3088;753,36119;825,36135;1185,8671;
1722,000;234,77923;1764,6112;759,97535;792,48125;1268,0971;
1720,000;231,98472;1915,6722;722,66663;806,234;1362,9038;
1718,000;225,5365;2004,8936;723,75329;804,82267;1368,9805;
1716,000;241,28536;1958,6597;657,54456;815,41097;1339,9387;
1714,000;235,42162;1828,423;678,72892;768,29103;1345,1541;
1712,000;241,02002;1754,3235;689,04451;786,55015;1287,7193;
1710,000;247,46789;1628,9551;689,94795;735,12491;1201,1166;
1708,000;233,45232;1542,8086;634,58519;709,63737;1127,6147;
1706,000;231,35386;1455,3091;634,73098;664,46108;1137,97;
1704,000;258,24978;1490,7613;554,22437;667,92825;1040,0711;
1702,000;250,03546;1382,606;616,67834;698,12148;1077,3629;
1700,000;260,21629;1295,2477;569,48547;639,89433;1001,9811;
1698,000;285,56054;1208,4705;568,67395;642,95184;918,33765;
1696,000;272,626;1126,0966;540,52083;639,71331;895,27613;
1694,000;293,88182;1081,5139;490,78598;600,28247;798,56099;
1692,000;263,80262;986,72406;536,70913;595,18738;809,64189;
1690,000;247,57302;902,12369;520,24764;623,47106;758,60802;
1688,000;270,43336;851,57178;494,28206;582,06281;696,43587;
1686,000;257,52395;843,66512;479,61598;612,92573;667,6177;
1684,000;250,06793;825,13075;482,05235;575,69309;660,04244;
1682,000;305,32401;813,79415;477,0911;587,15482;646,06313;
1680,000;266,92673;753,55581;492,58098;592,77208;640,22161;
1678,000;263,65775;765,65199;475,93084;561,67025;623,69542;
1676,000;290,79625;767,24415;471,79486;579,08881;635,71579;
1674,000;277,48702;772,9274;466,18484;533,83657;604,09641;
1672,000;297,09425;801,3021;511,41074;601,76403;638,398;
1670,000;282,60785;800,60733;497,59729;609,0825;648,3722;
1668,000;281,65327;826,20621;506,01263;587,86997;666,34062;
1666,000;292,67991;880,04639;495,57178;582,54323;691,90937;
1664,000;284,68746;908,37704;494,97826;576,81448;696,30127;
1662,000;260,4502;930,65602;488,5749;590,27482;733,03255;
1660,000;302,61032;988,89507;512,04006;626,7615;756,0269;
1658,000;294,92635;1029,9688;519,13546;611,02712;809,72977;
1656,000;276,5495;1106,8476;504,01227;603,35589;818,62223;
1654,000;291,84073;1162,359;534,94453;637,4293;902,77299;
1652,000;290,6592;1327,7867;520,11878;657,09611;975,26404;
1650,000;261,95289;1448,5962;543,67045;679,1179;1060,3114;
1648,000;293,72635;1776,9171;535,9875;687,35956;1193,2813;
1646,000;283,19146;2230,2917;558,01311;717,94287;1435,9311;
1644,000;298,60629;2928,7763;640,52153;749,6138;1772,477;
1642,000;292,21733;3818,9203;711,71893;829,09659;2249,5885;
1640,000;283,14143;4758,1851;774,7728;920,57294;2776,5588;
1638,000;311,58176;5514,3051;816,03628;956,58939;3174,4533;
1636,000;273,05795;6445,3926;805,99286;989,41311;3792,6878;
1634,000;309,39383;8829,176;859,40827;924,66021;5068,56;
1632,000;283,35857;12358,309;928,55253;1002,8346;6893,0235;
1630,000;284,03396;13219,299;956,09589;1044,349;7619,8532;
1628,000;290,26365;9425,7563;947,2478;1079,2127;5911,6314;
1626,000;293,65247;5772,893;952,79856;1128,1158;3827,724;
1624,000;292,43115;3973,5485;1005,4578;1131,8324;2741,6424;
1622,000;307,4197;3303,8945;1208,8478;1273,8292;2421,9828;
1620,000;286,99722;3267,3362;1384,6362;1418,5061;2438,0376;
1618,000;295,36466;3425,9724;1629,6065;1689,5645;2650,0735;
1616,000;288,84311;3436,0541;1947,6405;1984,7837;3021,1186;
1614,000;299,12533;3779,3439;2364,4727;2394,1517;3271,0148;
1612,000;303,58729;4179,1105;2773,2884;2791,1678;3757,7347;
1610,000;291,95043;4601,9808;3126,5122;3077,9339;4181,774;
1608,000;320,49652;4932,6049;3344,3733;3356,4519;4518,6967;
1606,000;296,67118;5329,9895;3488,9411;3471,2556;4804,0625;
1604,000;285,89875;6627,2032;3599,332;3515,1976;5600,9679;
1602,000;305,92765;8639,151;3425,4067;3428,0575;6571,2164;
1600,000;305,07702;8725,6043;2973,2035;3003,8452;6594,299;
1598,000;328,22158;6139,6176;2266,0511;2384,3905;4814,1681;
1596,000;325,36199;3919,3334;1682,6403;1813,509;3167,7136;
1594,000;296,43685;2774,797;1321,4959;1444,7009;2231,4342;
1592,000;293,48994;2253,1891;1197,396;1270,3798;1775,6818;
1590,000;305,51259;1870,9059;1095,6685;1184,9608;1613,1826;
1588,000;319,88081;1725,144;1168,2235;1255,4149;1515,4469;
1586,000;287,89272;1673,0723;1413,6666;1466,8584;1625,8316;
1584,000;307,77496;1662,9581;1712,8127;1686,6858;1889,7267;
1582,000;317,51365;1667,1791;1703,9848;1739,7255;1883,1708;
1580,000;298,11846;1702,1669;1460,9557;1507,3562;1707,4191;
1578,000;315,30255;1889,8864;1215,3809;1266,3051;1639,4278;
1576,000;334,52554;2109,1848;1003,6271;1074,1825;1650,9504;
1574,000;309,25116;1939,1818;845,89389;938,43822;1494,5186;
1572,000;310,79346;1535,3007;731,02304;887,95997;1214,4487;
1570,000;306,02016;1254,3626;693,20511;776,69998;1018,7753;
1568,000;310,54069;1098,3382;645,27044;749,51452;927,4861;
1566,000;343,29179;1053,2319;654,85716;720,07945;871,87951;
1564,000;313,35016;1022,2611;631,49496;704,43314;798,48944;
1562,000;323,954;1003,9406;625,10409;681,10357;762,92068;
1560,000;299,62975;977,52105;607,3006;647,76477;782,93217;
1558,000;332,30855;948,06815;557,82863;645,03933;732,28266;
1556,000;354,42217;932,29935;594,44673;637,9646;768,49332;
1554,000;354,81513;945,65293;586,2409;667,0046;758,16528;
1552,000;340,37661;862,04906;587,51076;604,09894;711,03311;
1550,000;338,85585;910,21102;531,06079;637,48057;742,72573;
1548,000;345,38154;854,94404;572,55397;639,63064;734,16331;
1546,000;322,61359;853,52313;521,11983;650,84211;675,50671;
1544,000;347,99316;821,92459;571,88162;660,55113;694,24947;
1542,000;347,27043;792,50799;539,7768;648,52303;680,73179;
1540,000;322,23896;774,52506;574,05924;651,07827;682,0553;
1538,000;317,29168;781,49898;524,63457;618,04703;665,92845;
1536,000;334,2121;761,27991;540,14999;635,59104;638,30517;
1534,000;330,37969;758,41525;535,92425;623,36971;643,7759;
1532,000;320,823;749,27772;531,39372;620,2556;663,75179;
1530,000;325,12649;731,86809;558,56109;653,6469;710,53938;
1528,000;325,65978;722,97171;536,43089;636,22024;663,36018;
1526,000;340,60992;727,11173;539,10444;614,65798;649,3958;
1524,000;310,05767;693,43651;535,07373;641,43617;668,09506;
1522,000;345,44264;711,71891;545,46723;687,996;661,40896;
1520,000;348,9009;729,74312;553,6007;673,38417;612,31833;
1518,000;350,39569;759,91658;585,54389;631,89047;705,34079;
1516,000;336,39727;809,17899;574,36072;718,48963;703,81076;
1514,000;320,43301;790,39299;624,21832;735,57252;729,89076;
1512,000;350,77719;809,34544;634,95722;734,97091;745,71923;
1510,000;357,53359;798,71074;620,24714;720,87715;709,73838;
1508,000;325,53972;771,62594;655,50645;718,71057;741,24725;
1506,000;348,04352;783,50705;605,89159;712,73455;699,59497;
1504,000;338,49485;741,59174;610,08406;666,63092;700,42577;
1502,000;323,59733;743,09222;580,91007;708,92142;674,42257;
1500,000;325,81354;791,68896;628,11125;680,93642;712,03118;
1498,000;310,80388;869,77382;629,52918;680,76132;769,87291;
1496,000;319,54752;1060,554;628,1105;691,48619;866,04122;
1494,000;330,501;1048,2566;648,54507;685,22887;921,43929;
1492,000;305,66191;925,70946;650,18359;767,19097;786,7461;
1490,000;338,23678;844,19773;683,10793;758,56797;760,03124;
1488,000;350,93832;817,75112;691,83354;768,68535;775,11888;
1486,000;367,20147;844,22192;711,78252;793,2569;796,67909;
1484,000;328,16229;871,14984;740,72783;846,06875;794,92348;
1482,000;310,57704;888,77431;830,494;848,88114;827,80593;
1480,000;316,9391;949,75447;905,70849;956,31892;982,47127;
1478,000;325,55392;997,14374;938,16525;1005,8832;1060,741;
1476,000;332,24047;1107,2813;1092,9977;1145,3165;1122,3838;
1474,000;326,46628;1160,5407;1163,2415;1226,5952;1263,0704;
1472,000;308,26942;1327,3069;1270,0576;1328,2305;1319,5099;
1470,000;306,18872;1424,7893;1384,0414;1424,7545;1516,3818;
1468,000;333,30342;1505,8425;1519,695;1550,5556;1653,7267;
1466,000;322,12166;1656,2113;1591,7461;1638,8599;1726,8475;
1464,000;336,05073;1769,6518;1661,8111;1704,7828;1858,3266;
1462,000;287,59256;1815,6028;1733,835;1887,3678;1925,0973;
1460,000;312,82814;1735,6863;1785,4082;1804,3293;1984,4135;
1458,000;317,78025;1740,3025;1810,6108;1870,3373;1892,5754;
1456,000;337,27546;1702,954;1811,4895;1838,2856;1933,3272;
1454,000;295,50685;1738,6122;1784,8889;1835,8508;1966,5326;
1452,000;300,30872;1810,6637;1823,6032;1804,769;2010,5825;
1450,000;331,62358;1771,2787;1824,2956;1871,0838;2022,2796;
1448,000;352,92671;1688,1796;1811,2452;1881,1326;2015,6143;
1446,000;348,55089;1669,3363;1746,8515;1799,1052;1973,2214;
1444,000;322,88808;1621,771;1737,2986;1777,6191;1919,3481;
1442,000;323,69823;1637,2617;1618,6453;1669,1657;1761,6712;
1440,000;328,82514;1520,4309;1436,7729;1503,1093;1620,1447;
1438,000;307,45182;1511,0184;1265,9976;1345,7639;1425,7186;
1436,000;322,8762;1430,6835;1049,9054;1150,8971;1349,4012;
1434,000;346,07021;1385,5653;979,85423;1086,7058;1256,8034;
1432,000;354,32299;1406,7819;942,64524;988,58454;1198,0604;
1430,000;321,66581;1397,8095;850,64154;969,60863;1128,7739;
1428,000;361,41703;1483,649;844,07447;879,04201;1177,9595;
1426,000;345,93215;1571,5402;796,86107;854,83005;1236,5983;
1424,000;330,23921;1788,7115;763,20274;851,92812;1304,6164;
1422,000;333,28351;2025,7904;811,72466;873,38485;1461,4779;
1420,000;350,0856;2253,0168;793,30455;857,61087;1596,785;
1418,000;341,04144;2655,369;815,70108;883,44953;1822,3436;
1416,000;317,63227;3139,8334;817,98891;923,05909;2014,4872;
1414,000;334,38881;3590,2012;906,2694;1003,1177;2418,4371;
1412,000;341,43874;3853,9245;848,99139;968,14547;2488,5767;
1410,000;334,38299;3754,5601;880,03647;1004,2727;2396,4133;
1408,000;345,87223;3469,6096;903,89521;987,20619;2234,6728;
1406,000;366,39378;3224,2268;871,87026;1000,9922;2182,9687;
1404,000;354,18338;3026,097;902,31626;983,51903;2010,5091;
1402,000;410,46468;2902,2966;868,64896;998,97207;1938,143;
1400,000;378,39078;2588,0437;858,06627;1031,9765;1786,1777;
1398,000;364,69293;2249,5978;874,03195;1048,2971;1623,995;
1396,000;407,33914;2008,6103;863,16292;988,32747;1442,7713;
1394,000;382,78697;1702,1554;864,9268;1016,7365;1345,6556;
1392,000;375,69419;1486,8452;868,32866;1007,3725;1211,8342;
1390,000;363,23335;1419,0742;899,51858;995,57356;1218,9471;
1388,000;386,44012;1383,9594;911,66946;1035,9711;1219,2684;
1386,000;358,15074;1377,9736;933,90798;1069,3999;1192,2035;
1384,000;391,46595;1415,5905;980,04779;1086,8044;1259,2868;
1382,000;374,05292;1440,7364;979,71584;1037,7912;1251,568;
1380,000;352,64524;1507,9862;987,4833;1040,8413;1242,0907;
1378,000;386,65264;1507,7782;970,16316;1070,4344;1243,94;
1376,000;421,33572;1477,159;938,96122;1061,0352;1222,4445;
1374,000;405,32661;1366,9073;954,77265;1059,2949;1188,5819;
1372,000;401,25329;1307,0171;933,28557;1068,3135;1171,0825;
1370,000;409,90568;1153,8501;932,96052;1037,1503;1111,7038;
1368,000;390,14977;1137,9546;955,60986;1048,8637;1052,3716;
1366,000;418,75664;1087,5526;971,32059;1061,0649;1042,5861;
1364,000;399,7212;1058,8307;968,5919;1090,6673;1031,6385;
1362,000;406,58538;1051,7557;967,06615;1066,3024;1037,724;
1360,000;397,88568;989,9597;978,16663;1061,1198;1045,9053;
1358,000;414,77399;1019,4367;955,24711;1052,9622;1015,6871;
1356,000;401,55225;1009,4333;911,42847;984,76703;1016,0844;
1354,000;393,28504;981,20409;925,22979;1030,9553;1037,7182;
1352,000;419,96694;947,39371;923,00601;1031,7289;1028,7502;
1350,000;409,39921;976,1912;954,57;1038,6629;1019,3665;
1348,000;380,61834;984,21547;960,61694;1013,2733;974,3575;
1346,000;383,06697;1008,0835;951,7298;994,93629;966,14865;
1344,000;381,0624;1055,3429;922,5762;1023,9376;1003,4188;
1342,000;391,40583;1066,413;948,71459;1005,8246;1003,0877;
1340,000;354,40045;1088,8865;952,09094;1017,9188;1051,1525;
1338,000;376,92873;1223,9336;937,32061;1039,3605;1092,8035;
1336,000;386,52181;1362,4448;940,24093;1048,9134;1178,0329;
1334,000;391,66481;1438,7236;952,87095;1041,8717;1232,257;
1332,000;370,10207;1427,2629;933,99293;1036,6844;1236,0707;
1330,000;367,55402;1358,2239;948,44807;1003,8912;1203,0241;
1328,000;355,11303;1341,2249;944,19742;1025,7479;1164,4734;
1326,000;354,74513;1414,415;975,40411;1045,7324;1247,0951;
1324,000;352,19867;1543,969;954,67461;1040,7972;1333,6958;
1322,000;343,36947;1860,1156;947,92427;1017,4785;1484,1737;
1320,000;347,44534;2210,9308;974,22492;1084,2131;1716,3605;
1318,000;340,98481;2498,5366;1046,2105;1146,3617;1864,6009;
1316,000;334,14757;2585,7676;1068,2672;1184,7186;1963,7066;
1314,000;305,27302;2410,0877;1151,0088;1208,9776;1882,7655;
1312,000;302,16248;2162,8211;1186,8368;1294,3874;1802,2001;
1310,000;307,96194;2053,6512;1282,2249;1320,0885;1789,5131;
1308,000;316,30132;2012,8339;1247,109;1343,9887;1799,6599;
1306,000;302,86675;2099,8456;1272,5127;1364,4917;1831,3029;
1304,000;297,15385;2217,5481;1331,0984;1356,3376;1900,8487;
1302,000;286,78202;2240,3283;1354,2343;1416,1694;1925,4633;
1300,000;259,16438;2179,7463;1397,5349;1453,4506;1936,7948;
1298,000;260,04078;2114,2808;1384,6363;1489,8364;1923,7007;
1296,000;260,95776;1984,4496;1383,6291;1507,3374;1896,8873;
1294,000;282,83679;1881,0304;1372,2576;1442,3776;1778,4725;
1292,000;256,05703;1799,0008;1338,6558;1443,887;1729,5783;
1290,000;235,48294;1656,0282;1335,7837;1377,9479;1606,0102;
1288,000;255,14741;1553,3475;1222,9822;1353,85;1539,0749;
1286,000;229,06108;1447,4304;1161,3147;1249,7593;1457,1483;
1284,000;220,5407;1355,4746;1105,6843;1211,4392;1304,3432;
1282,000;206,15055;1266,9931;1041,6717;1116,4784;1261,3898;
1280,000;197,12971;1175,0706;977,86278;1089,0859;1150,4534;
1278,000;213,51064;1139,4799;1005,2807;1077,0661;1124,9655;
1276,000;205,15691;1083,3607;959,26762;1059,3406;1087,1073;
1274,000;219,40623;1059,8191;967,00736;1080,1295;1076,4763;
1272,000;193,81741;1065,5986;949,19831;1075,2552;1069,3224;
1270,000;195,5807;1069,2215;978,63243;1083,4146;1069,1973;
1268,000;197,07072;1029,8697;1014,4665;1077,8267;1085,3772;
1266,000;181,60706;1055,5206;1007,0677;1080,8741;1109,4803;
1264,000;193,86974;1067,0395;1052,6546;1136,2715;1131,2181;
1262,000;154,2521;1104,8499;1080,6314;1195,5443;1169,4798;
1260,000;173,40202;1139,9249;1114,3243;1205,5783;1222,5487;
1258,000;177,01381;1253,6836;1182,0972;1284,7219;1310,399;
1256,000;151,79999;1315,3786;1241,7484;1334,4511;1419,6976;
1254,000;157,63328;1394,6378;1332,6566;1397,7045;1534,7822;
1252,000;147,61387;1507,9948;1346,5608;1453,3151;1589,5198;
1250,000;151,33864;1511,1804;1385,6587;1487,0115;1631,119;
1248,000;154,44024;1562,8205;1390,8667;1469,464;1685,0228;
1246,000;134,68341;1510,4186;1362,013;1480,0818;1622,0666;
1244,000;141,90569;1463,929;1432,511;1455,8133;1610,6609;
1242,000;125,35541;1447,3049;1402,6349;1503,4737;1610,5108;
1240,000;145,95096;1479,6297;1427,0902;1554,3136;1604,859;
1238,000;123,79077;1469,8294;1516,9898;1556,6107;1648,0605;
1236,000;137,20093;1567,0278;1536,0569;1643,5513;1774,5826;
1234,000;123,40005;1642,908;1638,8771;1686,9973;1841,0914;
1232,000;124,54359;1732,6968;1725,2219;1789,3809;1942,1102;
1230,000;126,20056;1808,8088;1793,9117;1877,8213;2004,4838;
1228,000;142,75213;1832,4132;1816,0263;1896,651;2109,8088;
1226,000;126,51165;1854,5957;1840,5204;1927,1882;2135,6343;
1224,000;113,78275;1747,6697;1855,1058;1916,63;2019,8853;
1222,000;124,51027;1686,4371;1819,9504;1901,7015;1960,0436;
1220,000;114,91786;1591,045;1731,1166;1823,3587;1903,3401;
1218,000;114,90595;1574,594;1737,2836;1759,0857;1855,0056;
1216,000;114,7379;1534,9539;1680,9424;1779,295;1786,4231;
1214,000;106,99252;1555,3658;1651,3624;1689,5977;1779,4884;
1212,000;110,53513;1547,699;1590,7185;1634,547;1690,1889;
1210,000;108,89648;1739,9005;1509,9934;1558,2022;1757,0486;
1208,000;120,51795;2160,1228;1449,8611;1525,608;1967,0722;
1206,000;119,20936;2908,4254;1430,8494;1521,1204;2392,7474;
1204,000;111,12423;3714,6631;1487,551;1524,5911;2825,7599;
1202,000;117,52637;4156,0242;1484,7177;1527,6429;3104,5104;
1200,000;103,60568;3533,6428;1508,7786;1552,4267;2826,325;
1198,000;97,391275;2582,8692;1617,7743;1652,0086;2419,6212;
1196,000;102,55449;1936,9912;1707,6005;1758,8176;2077,3202;
1194,000;111,46966;1648,6829;1883,3018;1899,1961;2010,5752;
1192,000;101,88681;1757,0706;2116,1262;2128,2433;2219,0711;
1190,000;120,83004;2125,0844;2391,0229;2444,4735;2614,2197;
1188,000;98,226895;2571,4641;2732,9203;2739,0055;3047,1438;
1186,000;105,64237;2949,8746;2985,0655;2998,5772;3393,4057;
1184,000;123,57403;3301,8745;3007,8319;3022,2457;3582,5115;
1182,000;94,097795;3443,0316;2855,0704;2919,1005;3644,59;
1180,000;106,3418;3048,8714;2519,898;2551,0155;3198,4365;
1178,000;93,135096;2258,9821;1999,9172;2084,1514;2428,0941;
1176,000;90,346419;1573,2329;1550,1152;1646,5375;1740,8101;
1174,000;109,11629;1248,577;1292,3831;1337,6826;1324,2511;
1172,000;99,517966;1020,8297;1121,738;1157,6865;1125,7388;
1170,000;96,762139;927,42948;972,32338;1075,5699;1016,9772;
1168,000;110,27686;865,65003;902,06812;1008,051;929,11307;
1166,000;82,037084;846,99623;853,47834;938,63909;904,10181;
1164,000;95,475471;843,18868;837,97616;944,38321;938,60592;
1162,000;97,111243;893,95039;881,6836;1007,2707;958,34484;
1160,000;96,272857;1094,3942;951,24196;1044,0491;1130,5543;
1158,000;85,942269;1402,0567;1073,8661;1159,6213;1412,5851;
1156,000;81,107366;1640,0863;1200,2707;1294,384;1634,5932;
1154,000;82,698826;1455,6115;1251,7983;1335,5348;1543,7279;
1152,000;60,623167;1120,2648;1108,8068;1241,6911;1283,3725;
1150,000;79,290955;926,46232;967,10455;1118,8011;1051,5888;
1148,000;84,515967;855,21262;940,13154;1059,5507;991,4357;
1146,000;54,295091;808,75854;891,06967;1035,4977;978,19408;
1144,000;76,566723;800,65403;891,12708;1034,9678;907,23658;
1142,000;60,66207;749,43764;853,44275;983,18943;896,21637;
1140,000;72,946996;704,6182;871,93313;949,72781;897,17044;
1138,000;60,760866;682,79373;836,65255;972,40607;853,27679;
1136,000;73,474304;721,94994;877,38492;986,32216;896,54396;
1134,000;59,670794;745,81588;866,58446;987,62864;899,48896;
1132,000;74,540701;770,4943;883,78601;992,33491;932,37459;
1130,000;70,972766;730,29553;894,35898;1029,5524;1001,1302;
1128,000;66,872595;814,82638;947,36111;1086,2633;1024,9123;
1126,000;62,143283;929,17064;1050,3006;1135,7374;1113,1534;
1124,000;51,8004;1038,7567;1184,8448;1276,8241;1253,9212;
1122,000;76,54685;1264,2454;1373,1648;1442,7148;1466,1763;
1120,000;69,039479;1543,8577;1594,5483;1709,4206;1800,1382;
1118,000;67,142126;1946,4886;1972,9784;2017,8272;2262,7682;
1116,000;47,316516;2442,1576;2422,0882;2468,5306;2812,6546;
1114,000;53,476914;2874,2631;2854,4135;2894,9528;3255,5835;
1112,000;41,689864;2920,3645;2853,2836;2888,7148;3277,2321;
1110,000;54,362124;2484,1991;2606,2012;2690,1733;2911,4294;
1108,000;55,081633;2048,3994;2118,1468;2219,8625;2323,1127;
1106,000;67,063397;1531,543;1694,8181;1783,6618;1857,8345;
1104,000;63,718564;1259,41;1404,9709;1483,7817;1489,7988;
1102,000;54,673899;1063,1817;1206,0974;1309,9693;1233,9037;
1100,000;40,960019;932,2821;1029,1574;1150,8697;1077,3758;
1098,000;27,569342;822,09403;950,50156;1044,7628;1001,9859;
1096,000;41,085579;720,84387;851,71105;952,46943;887,92761;
1094,000;38,410289;722,37608;805,47248;889,33618;888,31825;
1092,000;64,086252;677,5375;750,49038;886,02364;868,08597;
1090,000;33,328918;751,37984;771,61975;887,32073;856,81004;
1088,000;39,262685;816,29378;817,71652;940,68203;926,31618;
1086,000;29,491418;853,73005;815,11916;934,09076;931,77174;
1084,000;35,048046;832,73443;768,24378;883,5638;851,41231;
1082,000;32,092873;676,45991;733,27581;874,55225;812,78449;
1080,000;35,954334;607,7277;696,9965;840,03327;713,53524;
1078,000;48,221507;574,10911;664,66213;842,6129;686,46956;
1076,000;34,655288;543,83956;677,26012;813,09338;690,16076;
1074,000;36,410418;515,92013;682,65411;793,35885;682,97994;
1072,000;21,772014;503,04095;668,53109;796,71196;667,00861;
1070,000;34,264274;514,74771;685,53846;810,62269;684,13865;
1068,000;53,41181;525,96125;693,06143;789,65849;645,63831;
1066,000;42,217563;510,19923;668,24155;814,63734;669,05979;
1064,000;34,272413;515,14393;713,0513;835,79905;690,79085;
1062,000;54,0127;538,50894;715,81508;819,83658;697,6681;
1060,000;44,730879;537,66299;722,2129;850,13252;713,69237;
1058,000;14,043179;569,09459;748,05386;877,73623;772,47734;
1056,000;22,835595;632,10717;818,94319;929,55038;815,99632;
1054,000;45,544519;625,75182;856,90902;984,24553;854,84381;
1052,000;11,981062;659,03036;866,71414;1032,314;935,90335;
1050,000;30,373311;691,76696;893,33052;1014,9646;935,82327;
1048,000;17,389033;716,75074;945,30767;1115,1626;1007,9675;
1046,000;26,972162;718,66002;1031,7021;1121,787;981,65906;
1044,000;20,011919;703,59599;1062,7281;1137,6783;1021,0461;
1042,000;15,44647;694,71404;1172,8563;1215,8503;1074,035;
1040,000;23,955288;776,04594;1312,6833;1387,9526;1206,9245;
1038,000;30,622301;997,77719;1551,6272;1646,7751;1473,6815;
1036,000;13,172808;1483,0894;1910,402;1998,6071;1945,979;
1034,000;21,668327;1779,8037;2201,1761;2256,081;2295,5825;
1032,000;18,997758;1567,2257;2321,1745;2456,5143;2295,544;
1030,000;21,920384;1212,6771;2122,6817;2245,3186;1959,4867;
1028,000;17,368556;1129,7027;1712,3915;1825,4991;1550,1114;
1026,000;22,582003;1095,7296;1273,7012;1450,8572;1299,7796;
1024,000;1,5418026;1249,3365;971,27688;1149,5873;1210,7743;
1022,000;19,25925;1266,0174;874,92033;979,78528;1134,9489;
1020,000;-15,859721;1166,3013;773,76122;916,74519;1103,5484;
1018,000;20,666835;1074,4227;755,88208;905,92713;1013,7346;
1016,000;25,760563;1039,0849;856,15316;947,78247;1090,7055;
1014,000;-8,6195701;1024,3455;1006,3952;1077,7796;1093,2093;
1012,000;8,7711693;1088,0651;1078,0866;1175,4032;1152,5801;
1010,000;18,136249;1083,9343;1229,5428;1321,7664;1273,4736;
1008,000;3,9869571;1272,324;1729,254;1735,5312;1578,4986;
1006,000;14,598543;1557,2834;2973,7451;2911,4549;2529,8994;
1004,000;0,90469127;2931,3129;5315,1429;5340,6238;4743,4694;
1002,000;13,47455;7311,4086;7205,8269;7236,2533;8072,3654;
1000,000;8,5966119;12735,53;5807,3245;6003,9822;10248,836;
998,000;3,9302872;10286,94;3168,5853;3269,3045;7763,7623;
996,000;10,261386;4431,6728;1788,4915;1867,1554;3773,2077;
994,000;16,910288;2263,6385;1295,8536;1417,0833;2056,7462;
992,000;-1,4155353;1657,8789;1088,333;1257,2688;1525,7623;
990,000;-6,8857602;1329,1055;1012,0443;1190,6841;1308,2456;
988,000;-5,4206445;1285,7692;926,50259;1066,407;1183,2843;
986,000;4,8805691;1073,5187;779,04619;933,23185;1035,5926;
984,000;1,2288146;866,24758;735,91186;852,22131;883,69703;
982,000;7,0269819;691,72223;719,53985;824,35323;788,75802;
980,000;4,2810897;619,30319;669,79813;827,1138;726,71391;
978,000;8,261166;519,76718;703,8002;806,43749;670,43946;
976,000;-3,1998806;452,02418;713,78763;817,6797;662,83225;
974,000;2,2139458;441,03151;739,68406;849,52037;672,88677;
972,000;6,5044397;425,24275;705,33803;850,65364;705,56234;
970,000;1,6230382;416,04771;745,42858;868,67568;709,62524;
968,000;2,434976;442,9848;728,30666;884,49619;714,20087;
966,000;-0,67741967;446,01321;742,26403;887,89507;717,05624;
964,000;0,94418238;457,48031;744,28407;933,23677;728,24305;
962,000;10,447534;516,00102;749,61938;892,5201;740,47572;
960,000;-10,323517;534,05576;744,24782;898,27641;791,60991;
958,000;3,9223312;593,46727;744,41878;890,18911;788,58374;
956,000;5,6721222;618,23373;747,73551;903,1965;773,77507;
954,000;30,060879;680,64152;729,02672;899,76289;840,03137;
952,000;-2,9225211;728,95342;735,84859;948,50645;820,68606;
950,000;-0,24155992;732,87607;788,0974;917,55272;855,85757;
948,000;9,5737746;792,95139;827,29808;924,14189;870,18572;
946,000;2,4418675;840,0822;900,41682;990,62969;935,23027;
944,000;1,7384829;866,35971;908,34648;1048,4716;980,28333;
942,000;15,564693;970,69842;938,55273;1101,7388;1023,0744;
940,000;6,6440902;1005,9991;1013,2916;1156,7683;1118,2565;
938,000;-3,2995291;1036,3653;1060,1836;1186,6525;1173,3062;
936,000;9,2174795;1109,4275;1094,3683;1210,0505;1232,4236;
934,000;8,5595157;1123,7281;1148,4547;1239,8682;1274,1256;
932,000;-11,415762;1166,3403;1107,163;1294,2904;1306,6344;
930,000;16,708642;1168,3461;1133,375;1263,6224;1306,8316;
928,000;5,3674677;1145,6336;1090,4159;1247,0369;1253,308;
926,000;-0,82205326;1112,3279;1074,4479;1191,518;1224,0759;
924,000;2,9002708;1129,111;1083,0644;1209,0796;1273,2783;
922,000;14,323423;1113,6428;1049,8179;1162,1823;1247,1493;
920,000;2,4140022;1161,6934;1051,5871;1178,6777;1240,2242;
918,000;1,9018762;1190,2016;1074,825;1220,4963;1288,8686;
916,000;0,72101883;1203,5699;1090,4833;1216,3892;1296,2723;
914,000;6,0704083;1258,3437;1104,3909;1272,2823;1365,0422;
912,000;6,6483143;1319,2264;1128,7714;1254,1652;1415,4546;
910,000;16,386877;1344,6903;1076,5268;1245,9612;1368,6068;
908,000;-1,1939794;1272,7591;1060,2266;1222,5113;1333,1466;
906,000;-4,5265535;1195,2836;980,62395;1150,68;1212,2023;
904,000;0,71546002;1163,1444;902,23541;1070,9231;1138,6769;
902,000;5,8337552;1122,9028;889,76871;1032,7939;1126,6059;
900,000;2,6772862;1097,5726;851,82068;994,30736;1104,8507;
898,000;2,6373133;1133,2215;857,47076;989,26282;1065,2916;
896,000;0,7987122;1143,6491;844,9775;990,76969;1085,607;
894,000;10,757602;1129,3669;864,04538;993,51517;1127,2874;
892,000;8,9805974;1166,5485;849,24645;996,75334;1140,0601;
890,000;-4,886048;1142,0766;869,2263;1069,3877;1168,9055;
888,000;20,236433;1156,4145;864,01327;1082,5307;1210,8735;
886,000;-8,3684825;1235,2971;935,16303;1063,409;1269,0203;
884,000;0,57885322;1228,0972;945,80591;1106,0658;1253,7008;
882,000;-7,2612789;1247,7008;1015,6746;1122,0796;1288,3398;
880,000;7,6668688;1225,7902;995,80018;1145,814;1329,8778;
878,000;12,088711;1188,837;1001,9736;1144,0125;1320,5015;
876,000;2,8985988;1179,0708;1026,253;1174,9063;1258,9772;
874,000;5,0698187;1148,0888;1016,2109;1167,4819;1280,2934;
872,000;18,848861;1078,1274;997,68654;1142,7029;1178,0113;
870,000;9,3091138;1016,7635;989,9917;1130,8348;1195,0752;
868,000;-6,0874489;1006,1201;1001,985;1178,0507;1148,9819;
866,000;3,6929232;961,35777;995,3729;1157,0738;1114,2707;
864,000;14,468423;957,27547;972,8275;1177,4282;1152,5269;
862,000;0,09922115;936,78438;1001,9642;1158,3437;1141,336;
860,000;4,7580553;994,82089;1045,6219;1198,4059;1171,7459;
858,000;-1,4642054;999,63309;1038,0232;1230,0154;1168,4822;
856,000;4,5413576;1004,3027;1091,6155;1250,9383;1193,7409;
854,000;14,733438;1128,1913;1133,1538;1292,9732;1286,4256;
852,000;2,7335555;1196,7286;1201,6788;1376,3235;1378,5134;
850,000;9,9598538;1211,0429;1243,92;1469,5167;1437,2686;
848,000;7,9988;1370,363;1335,2235;1464,6334;1517,5369;
846,000;9,6275191;1478,3145;1448,5151;1565,7658;1646,0943;
844,000;5,5858404;1575,7871;1556,3767;1734,0092;1766,2109;
842,000;0,18294631;1727,5416;1634,7905;1843,7925;1961,56;
840,000;1,9311395;1867,0676;1794,0704;1898,8665;2111,7244;
838,000;0,85096277;1934,5374;1876,7171;2039,1133;2232,2872;
836,000;-3,4527976;2131,1766;1874,7042;2078,4327;2354,7334;
834,000;3,5259393;2217,1149;1961,3453;2137,1054;2526,3017;
832,000;1,8733942;2304,1928;2035,0872;2213,957;2542,2353;
830,000;6,6772076;2405,8709;2045,9829;2228,6442;2615,7897;
828,000;9,5111915;2486,1101;2071,3103;2235,8542;2671,864;
826,000;-6,8303538;2563,8843;2123,8205;2292,482;2753,5184;
824,000;18,284627;2780,9259;2217,3588;2360,2716;2831,2695;
822,000;8,2107287;2941,1979;2308,8332;2454,02;3023,4002;
820,000;18,922307;3153,0103;2469,7709;2617,3573;3259,4771;
818,000;11,963743;3289,4198;2546,5312;2694,9739;3405,8816;
816,000;11,46128;3403,5449;2649,5971;2730,2952;3499,8729;
814,000;-1,6904226;3324,6276;2650,8738;2871,8138;3513,3589;
812,000;20,732808;2989,2921;2721,0783;2918,2393;3356,4076;
810,000;-0,62252584;2690,7614;2771,5867;2924,453;3098,5804;
808,000;9,8763216;2490,9802;2798,8284;2903,1116;2923,5406;
806,000;18,065603;2327,8815;2853,5463;2908,1113;2817,0827;
804,000;11,821609;2160,7371;2822,4684;2860,6128;2640,9218;
802,000;17,724742;1868,5389;2665,4096;2749,0521;2341,8614;
800,000;-0,21089421;1555,4135;2393,0962;2489,4344;1974,4214;
798,000;9,3560459;1160,3684;2056,2296;2142,3831;1606,0242;
796,000;16,287576;921,80229;1809,2154;1883,5787;1311,0033;
794,000;8,8376932;778,07685;1565,8456;1648,1624;1108,1518;
792,000;10,254277;606,45679;1342,4112;1452,4723;936,10104;
790,000;0,10399518;557,9434;1118,5966;1262,5685;804,85948;
788,000;12,694046;492,80597;952,87099;1111,8432;722,58171;
786,000;6,7690162;429,09599;859,76078;1042,6547;684,40608;
784,000;-1,2846121;480,74634;787,90295;952,99503;671,36441;
782,000;14,357113;593,0481;778,90747;919,04904;707,56376;
780,000;7,390178;701,23718;738,23924;928,19219;766,78868;
778,000;8,9670222;952,54183;706,46912;901,1184;878,95069;
776,000;14,617611;1368,7046;722,28961;894,51029;1116,9182;
774,000;11,028552;1827,7922;723,81805;924,79559;1349,6551;
772,000;21,293728;2524,3362;719,70765;949,69723;1754,2187;
770,000;3,6034879;3214,2328;781,88676;983,00394;2160,9169;
768,000;3,9614633;2791,0866;787,84454;966,87419;1963,683;
766,000;9,9978028;1641,2384;822,36876;988,06167;1383,0698;
764,000;10,692956;1025,8528;811,01022;1017,3023;1021,3136;
762,000;14,789965;725,60501;851,89589;1052,2895;849,12939;
760,000;2,6143318;588,33466;894,30023;1100,6879;806,15536;
758,000;6,5646622;521,42509;925,77987;1138,8795;823,47408;
756,000;-0,99142306;525,57748;960,65901;1191,2012;828,4868;
754,000;20,248662;509,83724;1004,8366;1279,8862;812,62719;
752,000;18,106626;444,92052;991,42879;1249,7483;778,3369;
750,000;6,520508;448,12802;978,33129;1227,4421;780,6214;
748,000;11,114291;423,73712;962,64657;1237,5702;772,03993;
746,000;22,971561;362,99781;941,91429;1169,3853;724,0559;
744,000;5,3071287;392,59452;921,11847;1156,7723;712,6037;
742,000;8,7992994;388,67014;924,0132;1165,4214;702,53445;
740,000;16,317459;430,64552;947,63168;1156,4346;692,20927;
738,000;-2,2871701;474,08097;963,41362;1209,5402;796,29469;
736,000;3,5910058;630,63095;994,24153;1295,3011;899,2117;
734,000;-2,3771786;809,80126;1086,8497;1342,2035;1105,4636;
732,000;15,897123;876,44746;1080,811;1344,91;1122,3678;
730,000;8,6827205;745,2473;967,28114;1188,246;934,96762;
728,000;21,475795;600,18421;848,56185;1074,8732;763,15103;
726,000;11,314496;503,84708;734,72198;932,82298;641,09121;
724,000;14,43414;516,96516;653,5531;862,27007;624,70012;
722,000;19,555312;444,2601;579,48418;814,86388;551,18234;
720,000;20,421908;429,97696;449,34311;710,24143;488,79232;
718,000;24,044108;399,1573;457,53086;654,33019;450,08513;
716,000;24,001144;377,24589;408,04129;628,81647;435,68416;
714,000;16,339658;357,74877;375,37076;623,83112;426,8927;
712,000;12,55454;379,97247;395,58587;632,84326;471,6833;
710,000;8,6715434;460,31884;444,42435;684,57472;506,37656;
708,000;18,851481;488,06368;447,79432;700,55748;557,94001;
706,000;18,978646;468,19268;441,99499;667,1351;486,32219;
704,000;17,068156;450,62973;427,256;612,22038;470,41877;
702,000;8,1205802;473,65663;384,3833;673,26571;528,98552;
700,000;10,446777;494,51241;413,32318;687,35426;549,69522;
698,000;18,241458;520,88249;453,79172;705,07402;570,68582;
696,000;17,475745;529,82783;472,69109;734,23244;583,29205;
694,000;2,3775994;523,81489;466,29274;711,03956;585,33536;
692,000;11,55609;503,30565;449,0661;730,86617;587,01861;
690,000;14,090209;499,68993;456,73535;712,53302;575,95555;
688,000;6,2435022;540,72263;467,18233;743,07809;564,01031;
686,000;10,287693;537,14681;496,92943;768,97872;594,94381;
684,000;8,0149;597,94647;550,57261;793,36744;674,34474;
682,000;6,2577274;672,29457;546,97159;845,81519;665,32779;
680,000;14,696393;652,65516;589,21633;829,9145;691,90906;
678,000;10,03949;680,36229;605,12267;872,74498;712,34336;
676,000;10,848315;647,63973;613,90479;894,7366;752,79332;
674,000;21,717049;702,07513;661,25257;886,87147;784,98339;
672,000;14,51619;818,52703;698,00846;935,76851;882,3567;
670,000;21,624556;857,27618;735,77217;1008,2548;946,82882;
668,000;21,3568;951,85478;807,44138;1065,2548;1013,7368;
666,000;21,722392;886,28059;810,07301;1077,8412;1028,0001;
664,000;16,717237;794,80894;767,93993;1009,5329;933,64206;
662,000;4,7068796;725,94408;722,82806;978,53804;851,40082;
660,000;17,484811;726,72398;672,61314;989,71744;820,25648;
658,000;24,628563;725,42006;716,61128;955,081;786,90119;
656,000;11,703677;735,22229;739,53172;990,5745;769,88385;
654,000;25,015563;757,69489;724,94252;1002,453;822,77923;
652,000;15,89514;756,50276;747,7065;1010,9527;810,91027;
650,000;6,5182323;763,97402;766,64489;1027,9778;827,91126;
648,000;28,403009;785,04273;791,83255;1008,5027;888,4816;
646,000;14,911922;847,13069;832,61514;1076,4568;918,43455;
644,000;16,123172;957,9067;924,44497;1201,1658;1067,3656;
642,000;12,244179;1215,5791;1109,7224;1387,176;1284,8616;
640,000;9,3668861;1609,0681;1551,0095;1815,7639;1761,2614;
638,000;22,309134;2342,5893;2257,8033;2441,2385;2624,4937;
636,000;15,791565;2723,597;2492,0895;2688,2641;2938,0699;
634,000;34,249589;2061,7716;1955,1784;2149,2544;2292,2371;
632,000;20,17146;1309,1595;1266,7771;1531,5259;1493,3745;
630,000;28,201772;956,8306;983,81381;1260,2993;1105,0883;
628,000;20,093546;754,10852;851,74342;1101,4275;908,23383;
626,000;20,254922;707,36769;759,51982;1052,0293;839,78269;
624,000;22,601438;696,81948;785,73238;1022,6092;812,21084;
622,000;10,746488;839,17278;943,56239;1215,0511;946,6319;
620,000;28,493776;1234,0193;1447,0061;1688,4912;1494,1957;
618,000;20,653751;1826,4552;1891,1795;2191,7612;2168,1599;
616,000;31,710255;1917,13;1623,376;1932,313;2134,4111;
614,000;12,999883;1316,7322;1158,1363;1426,1791;1442,6628;
612,000;33,023905;957,44827;906,14628;1198,252;1120,009;
610,000;16,880129;926,97991;808,38825;1129,9152;989,16252;
608,000;22,491624;996,8163;764,87232;1039,338;1001,6587;
606,000;19,896447;1036,7631;802,04819;1089,0103;1057,0604;
604,000;36,237867;1211,1893;744,80069;1072,3733;1153,2159;
602,000;20,085004;1285,8588;805,91159;1166,507;1200,1714;
600,000;16,33149;1285,063;805,0685;1092,8542;1159,288;
598,000;32,192672;1254,9515;772,0787;1112,1925;1162,2622;
596,000;44,721632;1310,5999;801,35305;1137,3253;1175,7584;
594,000;20,011117;1242,7069;808,7382;1105,7706;1138,9662;
592,000;26,076255;1172,7731;786,56742;1094,4269;1159,8516;
590,000;39,021218;1105,9153;752,55818;1154,0436;1035,4272;
588,000;19,183522;941,09587;718,16859;1108,2072;930,62134;
586,000;6,5504023;846,48212;780,06354;1003,1891;901,72003;
584,000;33,999041;751,9701;712,92718;1005,9411;881,53131;
582,000;15,892884;687,48551;747,00401;1002,7185;817,98086;
580,000;20,680389;628,29515;722,89808;1040,56;783,57114;
578,000;46,380314;603,15515;767,29832;1024,1705;759,67255;
576,000;19,234854;589,62306;713,83664;1004,123;730,58294;
574,000;21,842035;565,27529;719,63613;1006,8759;752,42994;
572,000;25,39976;605,56833;755,53295;1027,222;718,60198;
570,000;21,487765;578,25993;714,45249;1055,873;710,24612;
568,000;40,886768;568,16939;723,93514;1029,6061;705,73001;
566,000;35,288121;602,57672;737,76896;1037,705;790,36784;
564,000;33,525443;566,62139;706,11352;1015,3025;770,66727;
562,000;28,659136;609,24598;732,67481;1044,5264;808,36743;
560,000;39,113218;645,94509;706,5982;1019,2497;807,97452;
558,000;28,066435;689,84705;710,47918;982,58051;792,85119;
556,000;19,51828;717,36984;717,35316;1005,1467;819,78793;
554,000;14,465578;740,6498;730,49518;1042,716;826,92269;
552,000;29,532301;724,04241;716,10681;1026,1766;808,2466;
550,000;23,548231;649,18441;709,35114;993,22948;743,62981;
548,000;29,904496;580,43183;660,86401;944,44591;727,2415;
546,000;31,684066;490,84626;677,52493;928,51654;649,39092;
544,000;33,065213;472,94939;601,4197;939,73335;655,17673;
542,000;41,195441;444,1395;592,44334;871,41646;597,40533;
540,000;17,390405;423,05346;597,86563;884,79387;563,53143;
538,000;33,718903;421,15864;579,76543;853,25933;572,12683;
536,000;31,064202;393,65297;574,16856;829,64823;523,02065;
534,000;41,437802;397,74344;567,7238;878,7735;517,81357;
532,000;34,500863;383,56398;542,14564;854,23169;553,07578;
530,000;56,34039;405,79193;571,21688;852,80628;554,83003;
528,000;18,977664;428,95186;528,51508;849,82861;536,5081;
526,000;32,476203;440,33235;555,13436;826,92486;552,33068;
524,000;29,570956;461,53205;532,73602;863,89719;539,92396;
522,000;48,745393;472,7072;564,16701;877,27814;561,66386;
520,000;36,681881;522,74866;560,56022;873,94714;596,25554;
518,000;48,972086;483,97325;573,40377;860,39598;613,75183;
516,000;44,117774;538,07982;582,79508;869,15969;625,77316;
514,000;54,768402;539,18382;588,24062;923,04357;614,59633;
512,000;44,37458;528,26171;618,92998;930,40322;648,84746;
510,000;56,125497;581,79139;621,76613;948,06279;672,64391;
508,000;57,195584;544,38905;640,66733;960,48809;683,05478;
506,000;53,022243;566,42001;673,59798;1002,6738;714,4073;
504,000;63,517927;590,40671;633,91143;1003,116;728,57488;
502,000;59,558488;629,46358;672,38729;958,07928;727,98095;
500,000;66,898622;634,51442;685,31405;1001,3695;750,29971;
498,000;66,367181;623,45135;695,45415;1030,4353;759,63948;
496,000;73,768862;690,16115;728,06666;1021,7064;758,04191;
494,000;66,462715;680,45497;728,51698;1061,7179;791,9842;
492,000;63,883115;679,03269;742,26584;1068,4804;778,50811;
490,000;85,691628;681,44875;756,09302;1072,785;807,33049;
488,000;76,907405;723,84083;778,46451;1104,0498;856,98621;
486,000;96,226925;741,57399;788,18701;1098,5317;858,59192;
484,000;75,302491;761,96742;784,78249;1146,4305;894,54453;
482,000;60,248571;765,19827;794,16036;1147,1298;903,98835;
480,000;86,439502;815,11678;803,40796;1140,9163;896,44915;
478,000;90,087143;803,44937;814,58569;1150,9154;930,56437;
476,000;81,93855;809,14677;859,34558;1197,2596;938,38019;
474,000;79,206622;789,97365;832,96493;1164,3911;927,33283;
472,000;76,718753;821,86101;827,50706;1214,99;965,68848;
470,000;69,244621;892,9422;860,75171;1195,6055;961,87465;
468,000;86,379142;839,77866;889,6754;1207,1145;961,56248;
466,000;93,692616;852,42673;839,38405;1196,4492;932,88215;
464,000;87,488714;937,63921;867,57645;1185,9706;939,90346;
462,000;68,982829;967,85503;829,16924;1204,4411;1003,5133;
460,000;79,14956;956,35274;837,54988;1199,1058;996,77642;
458,000;72,06907;1021,1092;832,52517;1178,0843;1049,9062;
456,000;85,107203;1083,6618;788,83085;1183,9826;1098,7147;
454,000;94,941643;1132,4442;845,61217;1192,5793;1116,1167;
452,000;74,084971;1203,0494;868,94694;1191,8393;1153,2084;
450,000;75,904255;1284,6872;845,89701;1121,3198;1189,3319;
448,000;77,203049;1335,7648;809,35194;1188,9153;1214,2148;
446,000;89,692515;1392,8249;821,96187;1136,9021;1225,7086;
444,000;76,374045;1443,6299;837,81497;1146,236;1274,1298;
442,000;70,205192;1453,2264;835,61359;1179,9336;1257,5167;
440,000;79,777419;1435,1397;847,87456;1172,5772;1266,0954;
438,000;84,994748;1417,9145;858,34165;1213,824;1278,8282;
436,000;93,238152;1371,2717;898,82066;1202,5891;1229,0755;
434,000;72,629801;1355,7535;818,38181;1183,3766;1172,0329;
432,000;89,867361;1282,9182;826,54392;1217,5032;1177,9492;
430,000;80,887544;1209,6637;860,29597;1190,2835;1155,8673;
428,000;67,728519;1141,5008;797,28081;1143,8743;1087,4563;
426,000;66,236295;1079,9648;834,32675;1121,9325;1007,6152;
424,000;88,491917;1015,481;831,69062;1130,4895;999,62895;
422,000;86,174994;1003,7206;832,79229;1163,7249;995,38774;
420,000;79,94374;1015,4723;835,04159;1161,9636;1019,3523;
418,000;78,662524;980,57007;888,81389;1203,6544;1023,1513;
416,000;81,575427;978,41893;893,29882;1225,4351;1007,8018;
414,000;73,803897;948,86267;881,09247;1198,9178;993,00857;
412,000;73,107741;922,16804;895,46578;1242,2404;991,51053;
410,000;83,425488;892,66792;868,11551;1220,278;964,39746;
408,000;75,462316;926,42646;887,32229;1217,7365;975,9319;
406,000;65,72012;972,16006;897,83057;1246,8053;1000,6764;
404,000;68,572235;1004,9864;922,59117;1257,0496;1028,3591;
402,000;92,890098;1112,7555;927,96297;1278,6846;1118,0833;
400,000;75,384041;1144,0702;960,18354;1341,9893;1166,6189;
398,000;64,219072;1200,7393;1064,1322;1413,6096;1288,995;
396,000;69,763652;1300,0829;1130,4992;1448,5463;1359,1987;
394,000;72,814667;1439,1662;1175,0801;1509,8318;1455,0719;
392,000;87,329291;1480,3479;1173,614;1535,0305;1501,0741;
390,000;76,63271;1501,8288;1162,2821;1549,5735;1498,0906;
388,000;60,207317;1527,4004;1112,5013;1483,6456;1400,3107;
386,000;69,011525;1452,4475;1068,0129;1450,5768;1432,0726;
384,000;79,197122;1489,1311;1008,085;1420,364;1391,8412;
382,000;65,441263;1508,8455;1004,5617;1372,8383;1326,4409;
380,000;68,617912;1485,3108;964,6527;1356,2835;1325,4758;
378,000;71,458019;1507,7774;945,99885;1350,5512;1312,3991;
376,000;73,649492;1475,4788;969,88896;1313,3636;1355,3944;
374,000;70,299888;1466,9176;961,19809;1339,3344;1303,0729;
372,000;87,685871;1416,9706;913,66645;1373,815;1296,0382;
370,000;87,071176;1360,4667;994,53882;1427,7349;1291,7877;
368,000;86,596409;1347,9988;955,87734;1389,9812;1273,2876;
366,000;91,212283;1342,3294;987,37847;1407,7151;1268,1203;
364,000;91,593042;1285,8941;1014,436;1407,2928;1277,1966;
362,000;90,853257;1241,9556;1041,3429;1430,8036;1233,6456;
360,000;67,763088;1266,6955;1046,6183;1499,7064;1269,9748;
358,000;92,188178;1250,2716;1045,1477;1496,1599;1231,4534;
356,000;84,666696;1233,0104;1049,8006;1569,928;1294,7963;
354,000;99,514475;1272,672;1090,7962;1514,713;1268,5846;
352,000;92,897173;1251,701;1129,9261;1524,4485;1280,766;
350,000;89,268537;1294,566;1168,5358;1555,9215;1336,591;
348,000;92,214499;1304,6114;1193,4817;1614,6176;1357,7706;
346,000;83,897889;1348,6481;1181,6629;1650,0647;1347,3232;
344,000;90,790795;1299,8037;1233,319;1659,4175;1402,9191;
342,000;77,104985;1302,5634;1238,8994;1700,7688;1440,9226;
340,000;111,13936;1313,982;1259,7571;1695,5233;1374,4162;
338,000;88,119473;1351,3684;1273,5521;1694,9499;1451,5349;
336,000;102,54183;1330,4817;1261,9858;1706,9403;1438,5758;
334,000;100,88064;1357,7905;1277,8291;1717,1565;1442,9049;
332,000;101,99671;1319,5999;1233,2775;1776,5942;1383,4043;
330,000;113,90695;1325,8438;1287,7825;1760,6991;1427,77;
328,000;97,631521;1335,5041;1282,7154;1785,1717;1442,6872;
326,000;119,26723;1284,3333;1292,8968;1792,1393;1462,2243;
324,000;101,04325;1330,5178;1299,4612;1778,9108;1438,9355;
322,000;94,258574;1315,2621;1316,9055;1776,4712;1459,6988;
320,000;102,43104;1325,0633;1310,3083;1807,1847;1441,7847;
318,000;102,64107;1336,3153;1314,5558;1814,892;1437,8101;
316,000;102,70342;1315,7298;1293,4517;1829,5912;1482,4541;
314,000;90,331856;1287,8431;1306,6977;1789,8919;1399,9567;
312,000;96,031001;1308,4328;1341,058;1865,5111;1429,7836;
310,000;105,01113;1291,1007;1322,1753;1810,0744;1459,0587;
308,000;111,49271;1327,3513;1369,9206;1872,0932;1468,4543;
306,000;95,290735;1311,5144;1394,9543;1898,1525;1459,239;
304,000;101,66196;1314,5664;1369,3324;1908,2524;1477,1198;
302,000;118,19543;1354,2541;1405,3702;1924,5402;1484,6912;
300,000;105,12595;1373,1014;1439,1686;1927,3565;1490,6775;
298,000;97,712806;1420,4694;1473,8784;1928,952;1528,9875;
296,000;92,453826;1417,4898;1461,8616;2038,895;1583,2059;
294,000;109,41247;1466,4378;1477,8418;2072,9128;1622,3038;
292,000;95,419882;1493,5025;1532,971;2110,7641;1644,6373;
290,000;99,895502;1534,7835;1546,0245;2122,2026;1690,6052;
288,000;110,44;1548,3014;1581,8931;2160,9403;1766,1796;
286,000;121,78103;1620,6196;1638,5993;2220,4543;1766,871;
284,000;110,06572;1642,8029;1609,6447;2234,6247;1837,7146;
282,000;112,89711;1725,7549;1693,2065;2282,6013;1900,0318;
280,000;104,34838;1817,4656;1694,481;2254,8826;1990,8886;
278,000;124,0626;1833,5362;1791,3821;2325,7265;1972,3369;
276,000;107,99908;1811,3812;1750,7419;2342,6421;1998,6523;
274,000;115,84154;1864,0826;1887,6225;2411,6678;1979,2288;
272,000;103,33914;1899,9085;1846,5881;2473,8942;2121,0335;
270,000;106,08772;1930,1327;1879,7702;2458,924;2107,3113;
268,000;113,07367;2028,1075;1942,3657;2555,9072;2194,9318;
266,000;119,78479;2104,9909;1927,9523;2575,2273;2268,9766;
264,000;100,66408;2150,7336;1969,7526;2545,4219;2272,7708;
262,000;105,93534;2239,601;1995,83;2616,3372;2332,9955;
260,000;116,28961;2329,9227;1993,1188;2673,0026;2389,7529;
258,000;118,51194;2436,8722;2001,6352;2621,3619;2526,5027;
256,000;106,98324;2588,8483;2113,4931;2667,4646;2560,8154;
254,000;84,620857;2695,6548;2153,2163;2687,9123;2699,8859;
252,000;80,49473;2882,3288;2203,1472;2719,7377;2791,8596;
250,000;86,34297;3093,4699;2261,2931;2799,2151;2944,8219;
248,000;93,727909;3403,9594;2317,0375;2874,4865;3171,2451;
246,000;111,06456;3560,3592;2413,0085;2921,1918;3314,9702;
244,000;104,76501;3768,8125;2414,5338;2937,5159;3545,8327;
242,000;86,967695;3979,2538;2443,5859;3011,6751;3591,8616;
240,000;86,357307;4016,8213;2515,3573;3044,7294;3597,6115;
238,000;102,02245;3873,0729;2533,6872;2999,6179;3607,2101;
236,000;80,363624;3693,2461;2558,1442;3024,8255;3515,6302;
234,000;91,310466;3434,201;2612,5238;2965,9419;3349,6898;
232,000;71,259247;3245,0404;2530,1639;3014,0223;3230,977;
230,000;65,18111;3046,5433;2484,8687;3034,6422;3113,5764;
228,000;47,409745;2932,5338;2496,4797;2991,3129;3080,5256;
226,000;47,543689;2853,548;2553,2063;2991,2325;2990,9166;
224,000;42,768911;2850,2947;2479,3832;2897,8285;3041,3912;
222,000;55,675081;2755,557;2459,7784;2828,4318;2943,4119;
220,000;69,445545;2794,8935;2430,1648;2824,1442;2905,7991;
218,000;38,285044;2797,044;2360,0196;2700,9242;2915,0878;
216,000;60,423831;2740,849;2317,0678;2729,5958;2832,5762;
214,000;60,08937;2681,2885;2290,8721;2710,3968;2746,5;
212,000;51,181206;2626,0478;2238,1315;2685,5773;2771,9222;
210,000;40,393573;2594,2308;2204,9178;2549,0378;2709,6619;
208,000;47,513312;2505,7979;2175,7282;2560,5842;2614,1742;
206,000;50,04587;2442,411;2153,3923;2467,4296;2508,4204;
204,000;34,221492;2361,9406;2089,8014;2486,546;2499,1932;
202,000;63,401998;2274,1622;2052,1525;2452,3595;2424,2329;
200,000;28,271268;2250,5024;2070,4502;2387,5841;2384,2758;
