Raman shift [1/cm];Intensity;intensity;intensity;intensity;intensity;
3278,000;439,71227;633,8534;1444,8619;802,32672;611,27157;
3276,000;52,875947;1099,2284;1042,6285;855,60255;870,44585;
3274,000;39,907697;573,70423;1372,2353;742,27339;598,91718;
3272,000;-23,226045;1504,4531;1148,8559;951,83191;740,35561;
3270,000;720,43433;408,46981;1080,7226;788,46772;949,68416;
3268,000;294,74246;758,94267;836,28855;660,13637;677,98347;
3266,000;522,3595;984,03373;1478,7032;664,75734;712,12141;
3264,000;848,29449;781,23323;954,60052;834,01731;795,56168;
3262,000;270,39174;543,9238;1344,1711;609,79427;852,78224;
3260,000;395,10555;674,8741;938,92727;536,34952;651,13024;
3258,000;484,67722;867,91759;1109,8733;1083,5547;328,23026;
3256,000;344,10905;1333,3987;1078,9169;502,12894;1092,5747;
3254,000;640,62135;514,39676;957,86963;1087,4179;706,29983;
3252,000;447,33534;859,67883;1056,4724;883,35331;534,27221;
3250,000;245,73552;1013,6419;561,03734;984,00903;411,17316;
3248,000;557,82576;792,15915;675,82805;879,57429;885,00901;
3246,000;279,16423;793,88828;929,23138;585,19369;860,29912;
3244,000;540,91127;618,62506;745,07226;842,48081;570,81797;
3242,000;196,2611;1077,5851;835,34061;1185,0611;816,69805;
3240,000;298,26542;295,83302;643,54422;1070,4936;520,11175;
3238,000;454,64325;323,38525;656,12796;749,81401;544,41177;
3236,000;252,22051;690,97914;608,96957;672,3451;680,76346;
3234,000;330,225;347,21569;1233,7688;853,71021;269,01569;
3232,000;36,300854;520,95571;627,41414;519,51414;505,49072;
3230,000;227,64232;669,08492;1034,3978;385,51266;737,81193;
3228,000;82,134743;188,02641;887,38454;729,14831;581,79817;
3226,000;405,7534;467,56478;530,58552;826,07652;650,38739;
3224,000;319,90677;839,17513;660,8989;571,14255;519,12637;
3222,000;926,09407;1163,2664;1145,7314;346,16635;1020,8933;
3220,000;500,91132;691,87825;1085,5181;912,22272;488,40736;
3218,000;608,17174;588,8205;1314,7635;683,94543;446,43694;
3216,000;553,02733;527,54665;643,6917;1015,8242;384,31118;
3214,000;289,61403;682,04859;982,45404;913,49558;495,21888;
3212,000;169,66687;732,73052;944,55202;850,13083;522,99742;
3210,000;-16,300559;559,32129;784,70993;858,78395;451,77602;
3208,000;244,36682;590,19818;1145,1471;615,39783;646,24113;
3206,000;296,61758;425,76346;615,16942;824,14627;569,37507;
3204,000;790,46871;671,5272;605,1449;1153,6172;302,31792;
3202,000;394,13557;381,67862;1075,0888;648,59597;511,45326;
3200,000;16,609681;615,42657;1154,6827;530,58444;478,05876;
3198,000;648,57638;557,84755;855,47521;811,40296;551,31133;
3196,000;350,46864;597,55074;247,30789;848,66583;562,14661;
3194,000;418,37482;812,53937;936,39474;708,93294;161,9163;
3192,000;14,081715;651,73172;975,67131;471,54378;447,45752;
3190,000;-78,864367;819,61065;612,4188;909,11592;347,5451;
3188,000;95,40304;446,84149;549,21233;902,44732;802,83519;
3186,000;-11,64509;661,37043;1134,7482;830,24031;727,19858;
3184,000;30,650414;554,44796;1073,2141;548,61012;23,156862;
3182,000;-42,164808;406,64673;759,72124;1302,3817;601,48805;
3180,000;30,42058;566,69106;1125,088;471,30429;460,48936;
3178,000;116,24489;612,29097;1422,52;551,92131;369,92338;
3176,000;-184,70523;365,11381;1208,3457;457,04597;627,99425;
3174,000;53,470466;1096,2985;595,98301;457,94668;141,17929;
3172,000;294,78826;156,19841;679,21458;620,22406;399,85783;
3170,000;-254,85683;583,15419;727,82296;369,7563;320,03758;
3168,000;495,34594;603,72746;622,81528;714,70973;188,78777;
3166,000;93,657168;528,30668;1317,9762;1127,788;631,90973;
3164,000;271,84167;413,46892;976,54376;763,72756;177,92326;
3162,000;184,3747;979,58183;1088,9094;444,6146;307,96862;
3160,000;-55,829717;579,40781;474,33854;874,89646;298,51783;
3158,000;483,32691;621,65049;562,97304;599,95191;410,18349;
3156,000;658,9903;784,00724;920,20407;63,867959;193,2662;
3154,000;162,03071;646,62877;605,71551;723,74087;239,8922;
3152,000;582,69184;1088,1949;632,31645;283,5923;520,73722;
3150,000;207,49189;603,33925;482,61547;485,69068;440,68479;
3148,000;181,07093;605,69857;812,32132;818,96775;277,48311;
3146,000;60,220093;890,8195;866,7337;883,53552;641,72194;
3144,000;73,244573;813,84003;864,06355;732,99421;314,8028;
3142,000;45,848696;609,96379;1144,9078;401,55985;503,56896;
3140,000;192,69699;299,36012;447,16454;628,89963;298,52566;
3138,000;286,55707;721,92545;589,97431;753,864;423,65189;
3136,000;209,0452;549,45703;689,02731;579,81664;706,65764;
3134,000;184,66987;691,50847;567,01182;499,79208;590,33008;
3132,000;175,62207;941,07033;333,30508;842,87869;128,71758;
3130,000;-113,32261;545,45861;558,56321;172,64516;183,1553;
3128,000;-210,58355;641,29149;299,38066;589,11382;352,86568;
3126,000;-16,765747;659,46259;742,23669;545,74572;405,66858;
3124,000;232,18318;891,5685;863,74466;559,49462;255,82285;
3122,000;299,31861;1187,8365;308,82568;603,61826;206,50106;
3120,000;-313,00239;694,63828;665,22044;512,13428;132,85692;
3118,000;245,13051;687,95342;759,55547;172,77344;-83,447405;
3116,000;356,61519;994,71334;473,26212;762,15693;690,54617;
3114,000;327,36971;1367,7796;1008,3253;666,3521;507,72807;
3112,000;39,205768;630,71101;675,72327;344,34154;515,66356;
3110,000;239,03374;991,217;1007,146;496,87715;301,05098;
3108,000;5,2962086;1036,0097;814,26525;465,75771;480,91761;
3106,000;-155,78119;708,26155;525,31682;374,15154;771,94434;
3104,000;89,679102;916,77595;1046,1562;607,36325;460,91226;
3102,000;-126,59607;1060,868;1134,4035;736,15851;502,24225;
3100,000;90,227716;1231,4999;849,50102;715,29359;375,2496;
3098,000;111,72002;1124,7046;948,8828;740,25866;656,43457;
3096,000;160,81351;1200,6259;1007,6941;697,97337;871,1253;
3094,000;25,906449;867,13492;978,17018;814,34357;414,65807;
3092,000;27,625846;1342,439;1405,3153;894,11277;611,1925;
3090,000;174,11943;1243,5824;1514,5303;1075,6207;441,99499;
3088,000;98,444551;1396,7004;1817,0553;1164,8697;796,76786;
3086,000;138,64752;1456,8918;2002,4312;1178,7522;1006,0396;
3084,000;74,557004;1767,6169;1972,3993;1434,0453;974,85579;
3082,000;-115,53096;1874,2065;2735,9414;1677,9997;1098,0703;
3080,000;-80,16557;2076,3356;2986,6072;2042,0148;1172,2081;
3078,000;48,677086;2184,9999;3457,0871;1908,5836;1334,7372;
3076,000;93,49578;2818,5032;4192,0134;2456,0796;1452,7641;
3074,000;48,895872;3056,3149;4155,3447;2618,329;2121,6883;
3072,000;288,46172;3024,1033;5208,0496;3087,7719;2079,3776;
3070,000;329,98883;3483,9347;4834,5821;3119,3876;2035,3585;
3068,000;98,017477;3297,8386;4702,3655;3458,6068;2147,2448;
3066,000;220,68633;3819,7607;4901,6042;3161,5871;2100,8005;
3064,000;118,98092;3613,0751;4989,1986;3420,3886;2270,1785;
3062,000;86,40923;3703,366;5122,6121;3572,3586;1754,7807;
3060,000;135,98563;3153,1364;5225,9089;3413,9928;1909,8172;
3058,000;96,809267;3228,0913;4705,9488;2955,0567;1944,6161;
3056,000;73,456996;2559,785;4513,7124;2774,5199;1798,6454;
3054,000;64,969085;2352,7759;4515,6716;2871,3384;1667,568;
3052,000;188,57648;2268,964;3833,0048;2764,783;1646,6705;
3050,000;65,608783;1909,0382;3711,627;2229,4659;1573,7244;
3048,000;201,22212;1948,2836;2938,1615;2201,6457;1204,34;
3046,000;101,38983;1931,9018;2820,9088;2093,9129;1086,1006;
3044,000;374,52176;1555,5916;2481,5319;1706,9238;1141,6159;
3042,000;186,64734;1366,4217;2692,1953;1588,227;1001,0988;
3040,000;165,44823;1310,3847;2186,9046;1356,2483;1123,2158;
3038,000;124,10931;1115,0783;2440,5841;1436,063;755,3301;
3036,000;88,375801;1165,0675;2309,0426;1398,6747;1034,8836;
3034,000;145,94281;1255,5484;2038,7672;1399,462;815,63568;
3032,000;-8,7810414;1313,9066;1834,5446;1334,9807;861,63729;
3030,000;9,6707442;1188,9119;1903,1845;1253,0229;543,96588;
3028,000;65,865808;1100,9724;1557,5611;1238,4307;822,02367;
3026,000;265,10621;1095,8721;1679,3306;998,39918;714,33868;
3024,000;151,72442;1286,5079;1741,6919;980,86708;689,42087;
3022,000;108,07231;1176,7578;1427,1942;1094,3584;577,62081;
3020,000;140,01113;1578,8637;1308,1788;1032,9553;571,61761;
3018,000;21,160555;1580,6163;1491,0405;995,87961;779,07939;
3016,000;-37,153704;1752,2579;1588,5826;1166,0633;632,23157;
3014,000;0,25668089;2076,8358;1661,7597;1081,2748;866,65779;
3012,000;7,0773153;2163,8549;2151,788;1122,3507;771,68766;
3010,000;62,512612;2481,0033;2061,2126;1161,3312;773,66668;
3008,000;71,296792;2208,4855;2201,1956;1462,3448;704,22447;
3006,000;133,03865;2186,0103;2175,6728;1237,8665;1033,139;
3004,000;190,87641;2142,0015;2311,9164;1527,6714;923,59825;
3002,000;32,32881;1816,4811;2050,8808;1435,8032;915,67647;
3000,000;20,504794;2253,7807;2201,2202;1324,2701;931,02218;
2998,000;175,23454;2158,6831;2331,3178;1445,2263;896,22756;
2996,000;-67,696176;2108,7894;2312,3949;1508,4046;1022,7515;
2994,000;30,221727;2007,9965;2302,8179;1323,743;931,41805;
2992,000;250,38926;2178,5545;2464,2816;1525,3618;934,94609;
2990,000;1,2542458;2014,2919;2597,4755;1438,6289;886,59869;
2988,000;-8,1615389;1885,6947;2673,1324;1512,9134;1023,7138;
2986,000;-148,19922;2094,4487;2855,6648;1654,3823;1007,5435;
2984,000;29,747798;2243,7943;3054,7259;1830,0635;1193,3042;
2982,000;82,414617;2093,2558;3255,1881;1882,2861;1145,8638;
2980,000;206,4064;2122,9605;3497,5581;2029,5938;1225,9765;
2978,000;15,78535;2389,0604;3380,6312;2151,8438;1403,2155;
2976,000;87,373439;2155,8338;3530,4107;2154,644;1361,2933;
2974,000;71,496014;2256,7807;3573,7504;2103,8016;1292,224;
2972,000;57,619132;2324,7067;3493,8539;2185,3715;1355,7633;
2970,000;64,95138;2379,6322;3551,6445;2037,2836;1510,8436;
2968,000;107,17606;2509,017;3803,7921;1890,0457;1523,4895;
2966,000;96,152115;2524,9139;3964,0991;2215,542;1520,2028;
2964,000;150,68572;2544,7081;3647,1261;2160,0748;1474,1287;
2962,000;19,508503;2509,9108;3961,7928;2369,2669;1603,8007;
2960,000;56,431358;2546,132;4005,3789;2229,2082;1667,8243;
2958,000;118,23114;2601,6875;3918,0872;2331,2445;1537,7244;
2956,000;23,477052;2303,9306;4164,0118;2466,766;1652,3229;
2954,000;69,511927;2311,4789;4054,4681;2475,6794;1624,8965;
2952,000;85,77137;2395,9069;4249,5439;2378,4551;1628,7195;
2950,000;0,80109122;2420,1266;4632,3361;2487,3386;1793,2155;
2948,000;103,78364;2222,707;4225,8658;2602,6296;1647,0572;
2946,000;86,688186;2220,9868;4775,2631;2619,5676;1919,2631;
2944,000;158,01373;2286,5144;4757,2731;2789,2094;1751,087;
2942,000;148,38964;2301,0587;4671,0724;2865,4064;1817,9718;
2940,000;-7,4066052;2462,4548;4807,7944;2885,9494;1830,2384;
2938,000;-1,943034;2593,4777;4993,4611;2886,2338;1922,4034;
2936,000;123,02185;2607,6679;4979,1486;2858,5188;1891,2375;
2934,000;121,28459;2943,5171;4742,037;2751,3662;1791,4329;
2932,000;56,351555;3133,3648;4752,0392;2886,7877;1577,5504;
2930,000;69,130096;3496,1796;4804,4638;2751,7863;1794,2916;
2928,000;26,658706;3440,8877;4801,6918;2592,9002;1856,3938;
2926,000;28,844101;2966,9931;4633,2185;2794,4656;1690,3158;
2924,000;164,11611;2912,4338;4522,1026;2667,3537;1668,1316;
2922,000;5,5769756;2754,4544;4476,4399;2583,941;1671,9752;
2920,000;145,21556;2409,1363;4300,5903;2579,1028;1826,7929;
2918,000;134,01921;2340,8039;4427,5508;2786,6622;1670,8641;
2916,000;21,769782;2344,6318;4255,6201;2650,3122;1572,4108;
2914,000;37,132655;1934,038;4108,8426;2442,1125;1601,8444;
2912,000;-15,098698;2078,8216;4423,3053;2466,79;1531,9451;
2910,000;-57,246598;2263,6446;3986,9305;2420,1286;1639,5242;
2908,000;43,978191;2149,6058;4020,6084;2321,8383;1653,7276;
2906,000;48,190129;1995,3223;3805,2688;2246,3963;1408,0596;
2904,000;104,71299;1898,7425;3505,7898;2148,1722;1316,1638;
2902,000;101,51394;1736,2333;3659,1519;2084,968;1394,0363;
2900,000;117,04804;1796,3591;3388,302;2093,5108;1280,1151;
2898,000;52,271851;1836,4935;3178,3348;1923,6138;1378,3174;
2896,000;167,13398;1815,699;3170,7975;2016,078;1353,6384;
2894,000;51,740531;1858,7427;3170,7461;2017,7845;1215,3396;
2892,000;64,684352;1696,024;3128,409;1764,5828;1270,1883;
2890,000;51,614768;1755,0004;3089,2029;1657,1825;1142,6426;
2888,000;-25,555816;1880,9356;3007,1263;1636,6119;1068,921;
2886,000;-1,1704598;1776,5134;2848,2082;1740,5833;1129,1003;
2884,000;149,44072;1482,8054;2738,1802;1529,7816;1006,1014;
2882,000;92,084158;1610,7122;2906,0206;1622,0117;1044,5906;
2880,000;146,53462;1529,4751;2662,6496;1612,7828;1030,7891;
2878,000;137,36211;1551,4042;2588,6855;1700,9056;1027,5495;
2876,000;169,92448;1618,2009;2637,2587;1689,4738;1148,5958;
2874,000;57,94204;1613,6586;2744,5583;1454,0159;1118,6992;
2872,000;-71,716399;1577,7296;2488,4679;1503,0161;1160,943;
2870,000;109,72574;1564,1409;2520,4199;1395,5351;918,31127;
2868,000;147,38456;1409,2988;2251,0666;1352,2131;1032,5706;
2866,000;3,4640786;1379,7692;2046,5229;1394,9806;908,63664;
2864,000;-60,838497;1068,6756;1802,414;1091,0682;760,25317;
2862,000;38,104115;905,40588;1587,6843;1077,6581;608,96406;
2860,000;40,019432;812,45196;1390,3264;915,03958;583,95389;
2858,000;78,513011;837,61058;1222,7768;868,8884;622,28839;
2856,000;35,789922;658,72965;1046,4091;787,7538;478,02373;
2854,000;62,429083;669,18579;1085,1638;691,06675;511,59597;
2852,000;166,31711;558,10658;996,86204;626,94412;522,55169;
2850,000;-57,43882;518,73393;959,6642;658,26031;366,55228;
2848,000;-11,951435;450,43411;908,4528;703,52178;514,94582;
2846,000;41,683149;476,89794;979,46193;447,08673;497,51269;
2844,000;48,690579;469,02195;821,44545;637,11042;391,27573;
2842,000;-8,6774918;383,37493;726,82961;546,94136;400,03301;
2840,000;48,723442;395,25603;663,79067;582,99688;434,80435;
2838,000;74,066829;461,36435;688,35188;386,70733;448,67281;
2836,000;-54,032;371,91328;708,18176;409,66654;356,04789;
2834,000;35,856317;361,96219;758,02477;436,864;249,60735;
2832,000;140,91549;335,1823;637,28613;521,1581;351,46729;
2830,000;64,931395;283,28164;597,0032;469,49186;347,62241;
2828,000;97,053526;368,22124;552,03259;349,93562;195,63709;
2826,000;-56,740359;383,5931;555,34185;451,56777;435,77737;
2824,000;122,0702;396,71834;508,50378;458,65254;372,67082;
2822,000;68,142557;423,3873;523,25897;305,6758;304,03729;
2820,000;84,995275;268,01216;386,35047;397,02817;237,74303;
2818,000;109,63947;397,05045;564,87861;331,88804;191,37693;
2816,000;62,723086;246,91327;543,68584;236,68632;240,17595;
2814,000;-45,043755;319,93933;532,82573;224,56546;315,70846;
2812,000;-18,509461;362,36808;552,27029;229,47127;199,57125;
2810,000;36,782835;355,47029;470,65565;512,68529;209,33398;
2808,000;37,877206;339,1115;456,17305;380,42817;259,72709;
2806,000;106,0306;334,59417;383,8854;329,16709;321,04114;
2804,000;179,13851;233,29539;449,74075;266,07234;245,65126;
2802,000;19,463715;269,40877;371,63963;247,27252;205,60407;
2800,000;48,014387;137,03934;332,99128;395,40045;262,2231;
2798,000;5,2828712;401,00626;377,60401;291,8468;283,97684;
2796,000;-10,559567;329,57675;349,69741;384,38004;329,70827;
2794,000;92,005842;234,79891;319,16051;319,56308;338,32137;
2792,000;19,682247;295,01565;348,66002;326,07443;273,5947;
2790,000;56,694891;217,91351;370,80312;404,24512;303,20689;
2788,000;88,984812;407,17473;410,84414;310,55429;312,0642;
2786,000;69,075184;333,23608;482,56808;240,09461;310,17216;
2784,000;82,18367;265,30552;483,34716;268,02112;281,75897;
2782,000;157,75088;310,07071;439,37066;362,88516;252,41832;
2780,000;44,061327;232,82962;466,51689;305,92218;128,6052;
2778,000;57,919757;375,6601;482,93682;181,77221;200,31401;
2776,000;114,45489;316,43317;456,6168;334,99678;340,96944;
2774,000;70,144818;253,45091;559,94224;395,18059;207,93917;
2772,000;93,431285;324,21686;444,80224;294,10675;139,11838;
2770,000;57,801098;301,91281;550,1615;368,40132;296,19732;
2768,000;127,14584;221,90468;552,30229;309,21722;334,53271;
2766,000;85,891215;356,45384;555,97133;307,0864;260,53364;
2764,000;45,480833;351,12728;582,54682;340,30188;313,30535;
2762,000;27,415918;271,25537;512,10464;475,97688;176,18123;
2760,000;71,60674;382,73545;603,47315;442,26074;176,88808;
2758,000;-18,963015;307,3135;585,25516;387,85484;153,94581;
2756,000;-38,512814;402,47456;609,52811;415,08585;180,59453;
2754,000;60,058187;344,63047;604,54932;358,29325;260,02981;
2752,000;19,365217;223,29668;593,17674;268,65188;195,30837;
2750,000;-8,7747844;235,37008;441,85767;330,42804;273,49655;
2748,000;-60,973505;387,27581;476,70371;359,41803;301,52295;
2746,000;64,230692;393,80391;320,07115;301,51328;211,97997;
2744,000;38,767052;452,53435;404,23501;314,97321;192,33492;
2742,000;-17,47005;494,61185;435,94604;274,30271;228,5917;
2740,000;24,670214;398,46705;522,55143;351,853;285,554;
2738,000;-86,258688;352,83656;436,30709;250,87855;230,54023;
2736,000;46,151139;359,87163;473,9771;318,8374;165,91259;
2734,000;-22,528279;303,0947;345,84795;407,15005;243,11904;
2732,000;52,58715;291,16283;328,3568;314,88154;189,86554;
2730,000;119,89534;261,2561;519,0774;206,64086;164,62603;
2728,000;81,086706;188,3333;310,20739;245,32884;354,3046;
2726,000;104,94501;183,37745;365,09706;223,60562;227,09474;
2724,000;87,916235;257,68522;434,30022;347,43701;145,7137;
2722,000;178,61909;216,37797;517,84375;312,62734;257,43569;
2720,000;101,53506;263,29706;488,34428;198,36996;232,39516;
2718,000;47,074053;375,15246;435,49318;325,22255;215,20907;
2716,000;67,133814;368,33016;351,73816;288,83631;269,08809;
2714,000;31,360593;314,15814;494,07084;340,23917;130,02724;
2712,000;92,957866;293,84655;537,1989;316,31912;92,196325;
2710,000;100,51923;236,59214;384,21435;305,94487;201,41965;
2708,000;58,695613;179,75707;353,92053;210,38025;189,57215;
2706,000;69,342075;217,67313;347,27854;169,52022;240,11855;
2704,000;57,653974;186,60894;365,13606;285,82617;271,80723;
2702,000;19,676426;296,69076;365,11546;252,54647;229,45629;
2700,000;70,938172;173,44194;304,0572;188,06425;272,61666;
2698,000;109,32995;196,79014;380,12681;152,73264;272,53499;
2696,000;4,4182148;242,83101;262,36928;275,64129;274,52889;
2694,000;97,674313;147,98272;294,78219;339,70399;204,33761;
2692,000;21,417152;126,93064;338,2051;317,61635;272,24031;
2690,000;25,482703;244,85598;346,47362;277,79205;267,64369;
2688,000;53,764198;252,63893;359,75811;287,28553;224,96199;
2686,000;39,754119;106,79912;267,33566;271,95539;105,32718;
2684,000;-1,618686;210,99948;313,02712;219,05352;199,92097;
2682,000;109,71928;191,77447;344,94744;187,88793;119,38754;
2680,000;76,389068;163,36822;330,88546;245,01327;212,52435;
2678,000;-0,17473729;155,16012;235,78327;205,23706;265,45617;
2676,000;74,005475;180,19839;352,59799;282,98993;197,73395;
2674,000;23,238928;171,44439;229,99271;237,20426;184,41643;
2672,000;86,176721;232,48339;285,52315;183,49392;175,76618;
2670,000;72,898282;155,48641;285,22075;294,04688;270,5833;
2668,000;95,616619;161,23189;301,12005;197,87922;178,04901;
2666,000;164,05826;140,31322;233,64941;257,00797;148,79621;
2664,000;93,048171;219,65902;227,81034;249,8191;201,92407;
2662,000;104,19134;235,46201;308,50692;271,38722;108,82621;
2660,000;60,212452;206,8894;277,6278;251,53456;189,66498;
2658,000;108,41138;130,36099;275,85899;213,94858;226,78757;
2656,000;13,877755;211,43668;304,61291;290,57756;262,17658;
2654,000;60,961064;169,82802;258,58641;324,9964;133,6164;
2652,000;57,476634;137,73092;332,52163;293,08204;232,77432;
2650,000;34,068443;205,56396;331,07691;219,04349;174,71957;
2648,000;71,70323;94,059254;265,38027;299,61912;172,07297;
2646,000;-4,1760083;153,14125;260,45851;259,80337;177,46362;
2644,000;19,683638;263,42922;276,91452;259,41619;201,76274;
2642,000;24,208648;139,85028;344,42137;323,25945;201,90475;
2640,000;83,771293;194,82583;293,51242;268,81862;127,2023;
2638,000;57,23647;193,78907;336,40355;240,40226;165,33674;
2636,000;33,835638;119,28688;262,53647;297,08486;196,47519;
2634,000;88,970268;151,05897;267,26311;285,49002;214,44664;
2632,000;45,293065;212,12397;298,02004;194,93009;132,64119;
2630,000;9,5106545;206,7155;314,68629;224,37407;174,0468;
2628,000;28,699948;177,29143;248,39862;284,06924;137,65008;
2626,000;28,599399;239,3497;326,39374;305,51122;190,66584;
2624,000;96,265491;172,90247;259,33668;297,23818;187,14084;
2622,000;79,860366;198,62601;318,54677;242,16355;174,28246;
2620,000;63,650188;277,51976;282,53292;256,45074;198,75309;
2618,000;10,939815;225,35381;259,21287;170,94913;245,62857;
2616,000;48,270775;245,51748;307,76895;260,3305;199,44192;
2614,000;55,640558;266,41832;272,06207;249,55267;213,49383;
2612,000;22,926337;208,46954;326,38552;211,97523;191,21728;
2610,000;56,358836;195,79933;313,42166;236,93576;230,70309;
2608,000;20,111312;272,65504;317,86143;178,95801;223,35645;
2606,000;57,247;229,21919;305,77742;319,04466;175,34992;
2604,000;67,01338;258,99001;327,16098;272,6605;185,51426;
2602,000;-30,754727;230,76143;243,32212;270,17045;252,1178;
2600,000;67,01166;233,71959;278,18076;224,82879;240,91433;
2598,000;24,631122;209,13284;297,27584;257,24611;165,82035;
2596,000;74,658011;276,22075;302,32693;347,07011;163,83656;
2594,000;56,876167;267,18158;304,23031;274,37752;175,3519;
2592,000;13,450585;234,92923;288,28568;325,85991;248,53771;
2590,000;60,541734;274,28527;360,95935;294,75739;187,5822;
2588,000;29,42908;210,70368;333,79859;300,6322;163,55345;
2586,000;91,036276;177,67662;317,03531;316,6577;259,98983;
2584,000;83,251819;265,41044;292,51666;282,30027;262,85919;
2582,000;83,430094;239,093;326,50478;302,85745;242,9445;
2580,000;-0,17125348;255,21917;350,01585;314,26963;194,01609;
2578,000;23,243271;280,94463;388,64238;320,20773;273,00397;
2576,000;79,674569;247,59846;347,93608;251,09711;281,83046;
2574,000;37,341129;218,92237;341,23696;301,84919;266,91071;
2572,000;60,822153;176,99731;350,09785;258,26991;186,25483;
2570,000;44,619578;218,85576;372,78461;205,85014;161,92564;
2568,000;82,061909;231,00495;272,49548;239,37096;242,51186;
2566,000;79,374621;207,38938;311,72773;233,79576;183,20806;
2564,000;78,131313;232,91215;338,36466;288,6395;196,3025;
2562,000;94,87745;230,39362;332,19818;250,4088;205,67461;
2560,000;53,597377;230,04599;370,48123;297,23899;220,0277;
2558,000;77,613577;242,57102;310,95142;309,43259;204,87452;
2556,000;40,40523;248,5325;312,43431;259,80729;250,40384;
2554,000;68,799409;218,73507;329,84131;310,58881;184,79483;
2552,000;58,210504;206,94789;232,22963;234,34567;245,17412;
2550,000;61,888966;250,79143;338,31631;293,44587;226,35727;
2548,000;72,488071;261,94386;310,3754;339,36948;237,94777;
2546,000;85,558507;265,53129;354,65026;280,32801;230,19175;
2544,000;20,810151;160,19648;348,62161;259,64144;224,02062;
2542,000;31,150419;200,77086;353,70463;261,04019;209,91578;
2540,000;69,75966;241,91858;309,95996;301,44423;224,47796;
2538,000;48,804356;253,89242;352,19692;310,29046;215,9752;
2536,000;28,613494;323,3413;320,99897;307,02606;193,98039;
2534,000;44,719964;180,99648;340,41262;266,51811;175,84946;
2532,000;21,146433;255,77457;294,1646;245,06463;208,46758;
2530,000;15,815379;246,24031;330,00716;280,30791;234,26893;
2528,000;102,4747;185,22016;298,05205;258,22514;193,96385;
2526,000;49,442962;185,97911;331,08819;305,9572;215,85929;
2524,000;56,741155;250,76213;274,71494;349,83666;226,49843;
2522,000;53,799731;213,52477;295,60451;313,61618;218,67584;
2520,000;66,785753;239,65106;338,36692;239,48729;167,26101;
2518,000;41,916971;187,25507;250,97918;239,38314;191,20678;
2516,000;91,199067;261,8601;333,93329;317,40313;196,49135;
2514,000;53,473068;183,91953;326,73274;206,5093;227,76278;
2512,000;83,818572;184,32024;300,03889;255,994;141,22228;
2510,000;36,692479;187,39455;272,20129;264,99268;207,90886;
2508,000;33,304626;243,98329;321,80934;244,28668;242,7194;
2506,000;50,034417;172,44167;312,95084;290,34753;214,45583;
2504,000;65,94772;159,77699;272,20258;226,77469;221,10813;
2502,000;45,408171;173,59049;302,16948;278,91684;259,55742;
2500,000;65,318109;192,0928;332,84239;267,42408;198,02742;
2498,000;61,145409;162,01524;252,47591;290,6866;182,29895;
2496,000;32,137769;220,74569;274,44884;270,05297;236,82934;
2494,000;96,225057;173,4382;258,95082;255,34273;207,89532;
2492,000;17,518003;172,35986;334,34108;235,93438;202,34025;
2490,000;-3,5648036;226,83759;280,63787;253,48055;212,25035;
2488,000;-4,3505901;212,61001;262,78039;280,27248;195,33984;
2486,000;26,991047;163,19477;249,25573;225,53107;214,82869;
2484,000;41,195202;178,80987;262,4094;218,16139;160,90625;
2482,000;43,045703;147,60421;276,95035;281,36681;181,23584;
2480,000;52,790205;162,87323;324,19637;230,39873;184,39286;
2478,000;21,610793;200,50587;311,26113;259,51011;222,21541;
2476,000;8,0120788;219,29328;259,07845;201,82025;205,79982;
2474,000;-6,2897502;223,97857;283,87779;260,5657;234,68045;
2472,000;71,825764;167,21141;345,8027;277,6859;228,29873;
2470,000;75,587994;217,72296;280,4133;245,51099;222,51169;
2468,000;49,065806;191,94823;311,76426;260,39923;175,742;
2466,000;70,78098;160,46245;277,21907;260,95096;169,02992;
2464,000;74,605093;213,22145;247,55048;294,85603;186,20772;
2462,000;63,880801;156,58783;295,34084;300,91191;182,16894;
2460,000;70,672674;272,03095;261,35101;259,74321;161,08504;
2458,000;56,701661;189,57809;272,67104;241,35623;234,60088;
2456,000;60,094368;182,95541;288,63663;256,73446;224,35748;
2454,000;48,073662;151,91254;265,67374;252,55028;246,52851;
2452,000;94,779386;187,98188;274,50886;221,07574;226,808;
2450,000;65,796111;180,25244;311,72582;280,66989;224,149;
2448,000;85,198735;214,55588;232,22916;236,07133;179,12762;
2446,000;39,184273;205,70572;263,31174;223,18217;230,31293;
2444,000;48,400947;197,30485;235,51442;242,38389;223,73902;
2442,000;44,755883;204,75732;218,12867;230,42764;204,15076;
2440,000;50,234318;199,5244;272,09191;253,06009;217,13927;
2438,000;54,052982;196,25013;285,8496;259,35658;237,88488;
2436,000;71,540436;176,55059;269,29684;286,31256;208,78623;
2434,000;48,806137;222,73841;321,79058;246,81199;214,28699;
2432,000;103,0289;203,6508;275,76376;286,4691;223,60697;
2430,000;39,023378;139,18201;255,28844;229,73207;218,38008;
2428,000;91,797649;166,79845;297,2024;262,30043;188,04043;
2426,000;91,174557;190,67092;280,70247;206,45599;202,0126;
2424,000;92,217077;103,42909;255,40381;206,4997;213,74932;
2422,000;47,661324;173,95035;293,73009;195,57519;241,91481;
2420,000;69,917799;198,12955;232,86568;262,06162;173,75354;
2418,000;61,109363;170,3596;253,91808;211,87823;177,80077;
2416,000;16,044933;154,91654;264,51223;199,60895;229,16722;
2414,000;64,321241;159,39525;235,73566;237,66611;235,5282;
2412,000;44,067546;164,10724;256,64546;204,00368;150,12875;
2410,000;25,76646;169,79567;275,83374;275,05233;203,17716;
2408,000;20,138386;172,05101;259,7897;243,2332;191,60289;
2406,000;42,927397;161,85685;281,80412;203,81982;227,75942;
2404,000;55,045464;161,60829;254,9353;256,24059;212,13426;
2402,000;46,907017;152,79845;222,77295;257,73711;181,27924;
2400,000;46,555187;155,97318;241,84047;247,20087;156,47372;
2398,000;99,667687;169,76838;246,76836;255,00984;181,1474;
2396,000;59,457781;111,52419;244,192;227,70855;185,32345;
2394,000;61,857156;171,87954;243,4461;187,13269;144,62724;
2392,000;36,182346;188,35471;195,51849;248,3163;250,58643;
2390,000;72,012732;189,59918;229,3792;251,24657;178,09662;
2388,000;37,248648;152,36406;212,85495;213,62913;189,8012;
2386,000;56,605085;210,42544;206,69293;267,17662;149,16225;
2384,000;49,688716;142,18977;262,33995;221,83568;186,09575;
2382,000;39,262272;145,03464;255,29004;227,01842;167,6618;
2380,000;26,189127;158,68811;221,61952;184,08027;203,4808;
2378,000;45,450634;161,43846;250,87087;173,16062;207,25767;
2376,000;60,729751;170,99751;199,96203;180,34235;145,50027;
2374,000;43,362126;141,31916;223,77291;190,29839;178,18478;
2372,000;41,155095;137,95502;239,04706;230,86615;171,74815;
2370,000;38,66279;188,1533;225,26188;232,28803;231,20177;
2368,000;56,394305;181,65614;273,20862;270,6377;191,93687;
2366,000;59,965631;184,45621;287,43871;170,21754;223,92693;
2364,000;90,592058;127,57628;233,08818;217,60214;252,88668;
2362,000;67,154456;162,4933;221,03344;245,0253;141,00008;
2360,000;74,741876;163,48136;230,83344;227,85022;212,7799;
2358,000;44,850659;202,5327;172,14462;226,95732;180,66017;
2356,000;59,491036;144,17703;199,55648;212,4085;162,97306;
2354,000;17,846094;132,07047;204,8702;221,3322;183,75125;
2352,000;0,20337826;195,32472;209,49814;199,67064;224,57679;
2350,000;55,820817;146,89703;188,40237;172,95514;217,18704;
2348,000;93,394935;96,54573;220,87905;231,07621;181,78015;
2346,000;58,579355;114,81797;253,63804;267,83256;219,07037;
2344,000;41,837968;143,8829;144,41241;232,52961;210,07632;
2342,000;60,632603;94,397882;222,91302;204,56896;177,29574;
2340,000;5,9703132;156,69192;197,31243;235,61714;194,71742;
2338,000;-1,0700651;113,83368;260,10907;187,1968;194,66181;
2336,000;61,481114;140,42936;153,87145;206,99784;191,7564;
2334,000;41,889552;153,0144;212,6694;155,57393;210,7371;
2332,000;57,446668;118,20811;215,10624;189,64592;226,69504;
2330,000;63,170539;147,99931;261,24886;169,81588;193,08073;
2328,000;95,009923;106,31534;229,91818;226,15943;209,10241;
2326,000;68,998505;120,72162;165,95554;206,1102;196,67151;
2324,000;54,316213;133,93198;217,50239;236,47102;204,11797;
2322,000;43,178759;104,49201;212,07693;203,8454;201,03411;
2320,000;57,183732;149,75308;199,7036;195,61086;152,97458;
2318,000;31,405187;119,0361;229,50136;211,36924;194,94205;
2316,000;65,975274;144,79352;256,6515;194,18159;197,70323;
2314,000;16,879419;149,22829;249,1651;190,58819;203,28409;
2312,000;35,601915;164,53351;169,50539;242,65924;139,91049;
2310,000;31,144411;138,40784;223,25183;200,99269;176,78847;
2308,000;0,6496985;114,35937;193,17082;202,98271;202,06394;
2306,000;29,674017;92,460994;193,29335;215,00625;181,76665;
2304,000;51,038246;170,7502;227,45892;231,24747;145,40202;
2302,000;60,274372;108,63445;167,51208;188,38587;134,62556;
2300,000;72,419966;118,88553;199,89313;143,81931;180,10323;
2298,000;38,248114;179,23413;201,89892;186,48672;175,52842;
2296,000;17,242771;141,65865;214,56287;233,74149;213,45294;
2294,000;44,677728;99,150616;185,14591;201,73696;153,09315;
2292,000;72,115818;127,25054;179,61766;177,69149;182,07283;
2290,000;69,819737;144,83965;204,8191;199,52166;164,97702;
2288,000;77,865147;98,788825;152,60021;206,23989;192,30971;
2286,000;55,382855;121,81075;157,2231;193,94006;148,74101;
2284,000;63,472108;149,00181;156,307;167,95226;196,43321;
2282,000;58,578528;88,749709;197,93195;164,04965;160,0538;
2280,000;87,763968;148,96921;177,9044;216,38482;169,49684;
2278,000;74,744914;137,23769;191,64271;201,49585;153,21874;
2276,000;92,978843;89,56764;196,38931;189,08827;140,84118;
2274,000;75,029708;95,862826;212,26151;205,12329;141,08057;
2272,000;90,685194;125,75537;244,45962;238,52911;177,78033;
2270,000;48,922587;155,94878;202,69457;186,63355;170,26685;
2268,000;34,277555;114,29771;194,04557;203,91396;172,20453;
2266,000;61,82428;126,7639;182,48088;179,87371;173,75042;
2264,000;65,918208;148,53553;202,30695;176,99371;203,99016;
2262,000;71,969535;147,21024;236,57693;244,73216;123,00172;
2260,000;57,239769;134,79993;151,1262;201,43764;184,3005;
2258,000;63,777054;142,52885;202,16975;237,89821;160,32789;
2256,000;77,999908;114,7745;215,66117;192,08519;203,80642;
2254,000;26,244645;140,14086;204,93201;228,94936;191,18125;
2252,000;56,96518;126,47871;183,52941;191,12259;152,61794;
2250,000;14,254915;132,6172;180,30958;204,40322;149,74652;
2248,000;46,11912;175,48373;152,7741;215,93105;161,92736;
2246,000;29,680473;151,84471;193,39894;184,82412;162,63616;
2244,000;39,61705;131,68041;167,39061;211,31677;183,29815;
2242,000;14,430057;141,23977;196,20398;210,9013;177,86782;
2240,000;47,542899;95,507914;240,61457;199,16525;194,03094;
2238,000;27,311921;123,38108;186,98103;198,63971;148,19878;
2236,000;10,065134;129,54942;226,92036;202,81934;161,58173;
2234,000;45,257042;127,73856;142,93366;203,82928;184,84183;
2232,000;37,631757;151,4558;171,8943;204,93156;188,61998;
2230,000;26,010865;144,47656;163,71453;186,1744;187,48924;
2228,000;32,714743;100,43453;206,58586;205,04712;168,76938;
2226,000;83,237685;124,36817;197,87818;206,6564;190,34445;
2224,000;-8,0697858;102,21003;193,85096;232,93477;184,66585;
2222,000;45,448687;132,26742;227,55186;203,13294;199,65136;
2220,000;44,263249;135,9677;212,15051;180,09082;190,75761;
2218,000;30,58964;131,58506;192,36322;212,85627;129,75807;
2216,000;-19,445754;136,71402;180,94688;232,02488;171,00295;
2214,000;48,330852;125,23149;199,20081;217,81534;162,09248;
2212,000;26,667955;173,74074;165,45467;219,78998;170,01144;
2210,000;31,271826;149,59268;167,56533;208,9343;181,23258;
2208,000;1,4378292;154,77018;191,7381;175,88776;192,20004;
2206,000;12,971118;126,75704;197,78234;194,55113;176,43837;
2204,000;77,861719;121,86413;207,38448;192,61623;180,37577;
2202,000;46,817639;123,19496;218,09157;236,63083;142,48305;
2200,000;40,994542;122,74047;196,28521;198,31602;164,48751;
2198,000;50,538065;98,940662;181,32583;178,45054;174,36436;
2196,000;64,087754;135,1765;182,09713;124,78816;160,96967;
2194,000;83,809549;116,87516;216,87243;191,43129;168,89802;
2192,000;64,726661;127,90771;206,6312;195,95697;158,72932;
2190,000;57,098631;144,23531;210,14678;216,80741;171,36411;
2188,000;49,19334;130,27903;158,60858;217,6521;132,13768;
2186,000;52,013346;135,12286;193,97194;195,66075;146,80624;
2184,000;43,257459;123,6573;164,67318;191,78744;148,71806;
2182,000;25,690376;122,85905;189,741;217,44769;156,83559;
2180,000;66,116608;112,83773;191,14346;225,18365;176,28301;
2178,000;40,782171;121,03288;173,81259;159,93369;192,1606;
2176,000;44,379002;127,3539;172,21974;198,20874;160,98598;
2174,000;59,985613;140,71299;179,03207;194,32118;151,72727;
2172,000;64,276447;128,72187;177,25348;181,35804;183,07504;
2170,000;70,021813;112,12089;196,65076;222,48328;181,74227;
2168,000;54,908925;124,51479;183,52482;199,23711;198,33634;
2166,000;69,133913;145,52946;206,94208;201,63929;164,74368;
2164,000;50,186883;134,84838;213,47768;216,61697;181,61846;
2162,000;49,405393;108,47636;221,46017;157,85885;178,20114;
2160,000;62,97682;115,78258;170,85208;197,24391;137,47952;
2158,000;70,868153;108,92639;191,75901;211,51319;172,03577;
2156,000;42,505901;145,65894;184,60834;208,28886;211,83155;
2154,000;44,360553;146,62919;202,37888;205,80144;168,3519;
2152,000;50,003892;113,63947;174,73133;203,63195;181,20898;
2150,000;44,748048;115,39215;170,45166;187,7577;179,63408;
2148,000;51,915749;123,95891;199,92487;175,93734;174,0638;
2146,000;34,964558;124,26146;195,10145;187,88538;165,71719;
2144,000;51,402293;132,21165;178,22084;180,07711;166,56562;
2142,000;60,742087;122,63614;175,66421;183,08026;184,98895;
2140,000;53,885797;90,526676;200,58789;209,85436;177,95746;
2138,000;68,627208;143,14945;185,70966;193,44527;159,1353;
2136,000;66,368452;129,59473;191,17533;214,73177;183,44494;
2134,000;50,298115;164,37103;196,68445;192,67953;210,16075;
2132,000;45,705261;127,05733;176,93187;206,56756;178,19399;
2130,000;59,487531;129,94309;209,34111;185,49839;155,53272;
2128,000;33,835573;130,09065;175,83315;188,01627;152,48092;
2126,000;71,575815;136,02874;180,51954;212,3463;167,36352;
2124,000;60,029934;161,23278;217,63533;208,93894;168,71737;
2122,000;43,25653;142,83841;199,89226;189,18021;173,50907;
2120,000;33,760933;145,9983;213,74359;180,45702;176,98142;
2118,000;45,394112;145,7532;222,46561;172,08188;190,18232;
2116,000;30,739195;147,08677;185,25149;210,53714;177,14821;
2114,000;33,415917;131,32585;209,74651;200,45966;209,02581;
2112,000;65,73824;125,27796;208,25077;211,43204;207,09871;
2110,000;53,713931;153,91678;206,30916;175,68916;179,90278;
2108,000;60,8734;134,44909;199,03788;222,99965;192,9068;
2106,000;21,612912;131,07741;185,16172;217,39706;194,2395;
2104,000;40,370621;144,93221;204,4523;208,7889;194,16284;
2102,000;58,948533;134,57383;207,50359;221,31439;191,2032;
2100,000;55,908757;131,65589;205,38642;202,48372;163,01971;
2098,000;59,3742;131,88708;208,05214;213,19247;190,41951;
2096,000;70,337985;137,22375;188,79487;203,62466;197,00781;
2094,000;60,893171;143,71351;213,75232;231,06357;205,77426;
2092,000;43,921695;134,54544;217,75142;236,64318;196,48653;
2090,000;65,877356;183,6826;219,19719;207,66702;217,99135;
2088,000;71,613371;134,40968;221,26109;227,1921;197,74412;
2086,000;66,430419;153,4764;231,85021;221,90813;223,20643;
2084,000;75,587376;130,31725;235,48939;223,31448;185,9556;
2082,000;65,775891;147,10923;224,68726;239,61852;209,85817;
2080,000;95,156186;145,42431;214,28575;229,00426;201,34648;
2078,000;86,574137;134,49095;246,2761;255,26281;191,84067;
2076,000;83,036915;189,74278;231,93829;243,26815;209,98414;
2074,000;74,289674;173,47006;238,05603;247,9388;212,0613;
2072,000;75,533852;164,05993;233,08255;233,69992;236,0082;
2070,000;68,522766;173,26474;250,36918;250,1859;217,01277;
2068,000;107,4853;181,57967;250,59097;273,01427;256,81311;
2066,000;78,255786;166,62774;254,04979;258,80363;218,71568;
2064,000;78,502833;181,16625;255,91457;300,0147;262,41238;
2062,000;71,607426;174,70369;229,85874;269,13578;214,32863;
2060,000;81,002724;166,87135;250,84051;292,76753;208,64862;
2058,000;106,37985;181,19827;237,76545;255,88869;257,43821;
2056,000;84,893526;187,33491;218,35804;273,86467;265,48619;
2054,000;81,772686;173,09024;244,15251;266,46768;259,65294;
2052,000;75,891177;193,62049;257,33896;286,61438;233,67282;
2050,000;100,46495;212,80854;296,90484;292,83764;262,21267;
2048,000;94,718531;160,00683;265,6696;282,3126;251,71108;
2046,000;103,31744;200,53968;287,51123;293,29399;260,63781;
2044,000;113,01696;206,63465;272,03119;289,55196;229,13067;
2042,000;90,688747;191,94341;270,25565;258,34456;254,26886;
2040,000;95,760766;227,9818;297,42199;319,26513;254,49571;
2038,000;94,820029;240,90348;288,06411;298,5742;277,79612;
2036,000;87,168173;214,74991;285,22759;335,60398;261,25979;
2034,000;105,57347;195,84136;291,14563;290,79115;290,06677;
2032,000;72,252249;193,52267;321,31273;297,95961;261,56708;
2030,000;105,15895;215,07169;333,81042;298,27506;279,61607;
2028,000;135,44978;246,02863;281,13095;312,49393;270,02585;
2026,000;134,09524;246,43124;312,92276;334,03094;309,46586;
2024,000;124,97133;213,90031;296,92219;339,10113;279,22232;
2022,000;126,68477;213,49341;305,58248;321,84766;254,80401;
2020,000;114,85836;211,58467;328,25965;335,16671;302,3167;
2018,000;94,01425;215,36638;312,52657;310,35549;328,12858;
2016,000;130,71851;240,34784;353,73738;342,1264;254,35857;
2014,000;122,39609;272,73183;318,98808;321,3125;273,17131;
2012,000;114,09529;212,51054;325,50414;335,12623;293,66039;
2010,000;115,41493;208,94986;349,24458;316,16943;306,67147;
2008,000;107,95712;247,24822;348,49486;332,71461;300,49528;
2006,000;93,200413;242,66974;297,24845;317,13853;307,06019;
2004,000;128,20707;281,04293;315,33839;342,70263;316,15009;
2002,000;115,06384;256,51515;344,63;340,35374;301,7431;
2000,000;173,01788;280,24731;358,12823;362,99474;301,76866;
1998,000;146,34969;268,0083;328,44279;371,9401;320,33473;
1996,000;156,78326;245,56074;378,18569;335,29039;286,72299;
1994,000;145,3383;267,11658;340,86304;373,43776;285,88827;
1992,000;132,54557;269,80991;388,17024;375,70135;309,13769;
1990,000;150,49341;274,50838;334,94566;348,39627;337,90331;
1988,000;153,71197;263,90712;319,66613;333,99299;306,89194;
1986,000;140,11813;262,81159;346,62703;377,9621;350,88622;
1984,000;130,42896;257,65252;339,03539;366,06535;326,27206;
1982,000;144,58015;260,42044;350,47323;377,20451;312,28776;
1980,000;122,92052;273,95795;370,3441;358,96347;314,4619;
1978,000;129,70514;257,3374;331,68969;347,63359;291,71691;
1976,000;140,17162;286,44608;339,61288;339,49296;344,88866;
1974,000;174,56095;296,71059;355,52311;356,7319;323,31806;
1972,000;150,85669;292,6726;393,2354;347,23186;329,12768;
1970,000;148,80957;315,42535;399,67894;336,99478;311,66939;
1968,000;148,85985;245,29023;357,6148;349,50994;314,77906;
1966,000;159,62658;259,16195;357,50786;390,06447;324,61418;
1964,000;149,19344;303,60917;365,27491;382,54049;313,53807;
1962,000;137,81316;282,46565;403,86827;396,82331;308,68349;
1960,000;178,36135;283,48963;379,0247;379,25372;346,8682;
1958,000;148,59631;296,99795;386,21078;353,03;313,91483;
1956,000;151,35052;271,03554;374,65175;354,92383;351,66881;
1954,000;165,32475;315,68578;379,21712;364,83156;316,69769;
1952,000;153,04721;282,39352;370,97087;384,49152;334,62322;
1950,000;160,34695;294,23731;387,61814;402,21076;326,73027;
1948,000;177,77279;315,78451;375,4564;381,91363;322,37122;
1946,000;166,18495;292,20578;387,89698;388,16982;350,953;
1944,000;180,70676;299,98169;386,69576;366,25395;309,51726;
1942,000;178,83346;292,43549;399,7871;385,40579;302,28468;
1940,000;165,68227;298,24062;390,74833;414,60061;329,32752;
1938,000;162,59873;294,9521;396,60929;370,07614;366,93118;
1936,000;181,54737;280,23056;389,75755;387,41559;348,46221;
1934,000;166,74935;306,85634;404,2458;369,08792;356,94098;
1932,000;169,90344;298,01586;407,8934;409,50215;318,34267;
1930,000;189,61332;321,21253;390,22364;413,59276;329,65588;
1928,000;196,52267;302,8937;433,33784;396,87845;310,5747;
1926,000;207,54195;298,03688;404,07196;401,59963;342,74907;
1924,000;180,4351;298,90374;422,31013;391,49088;348,79216;
1922,000;198,77074;303,62904;405,5648;408,66529;332,1433;
1920,000;202,0765;300,09882;439,27488;395,27446;356,49201;
1918,000;180,52587;312,94639;434,44095;438,818;349,10347;
1916,000;192,64425;296,29335;449,39948;411,4916;353,08379;
1914,000;161,82606;370,88302;402,91263;411,81884;361,31384;
1912,000;192,45483;321,77338;433,42389;415,70295;355,36894;
1910,000;200,18998;320,17325;433,53589;409,73583;348,59046;
1908,000;207,47469;353,71839;419,65994;416,79886;368,2747;
1906,000;192,00878;342,52149;443,86919;418,15324;409,57027;
1904,000;227,65068;343,34609;454,31533;404,87602;410,969;
1902,000;209,55064;324,80721;415,34324;387,93009;379,17256;
1900,000;220,45185;324,33572;408,33686;413,18143;377,23819;
1898,000;242,12137;378,16211;446,02737;415,98303;392,82689;
1896,000;206,16523;354,63937;468,95453;420,4628;374,77794;
1894,000;194,90757;377,30417;439,80972;451,15297;402,35832;
1892,000;248,94024;376,47813;463,17947;434,25582;379,00126;
1890,000;206,21016;367,97835;432,31907;417,41891;405,91319;
1888,000;198,65429;345,71089;410,17199;440,0061;376,18603;
1886,000;213,96891;320,03061;469,31698;468,31079;374,38231;
1884,000;204,40404;366,09979;409,98773;462,39809;369,90641;
1882,000;182,09697;361,77702;458,99009;435,36591;428,73079;
1880,000;199,05284;372,07169;462,52546;427,64196;395,96932;
1878,000;241,00841;360,37355;480,75218;477,96045;394,30242;
1876,000;214,39005;378,32905;421,48118;461,96897;395,61011;
1874,000;227,73212;368,16529;496,76446;456,39732;419,13297;
1872,000;224,44602;326,75901;467,15753;473,42184;394,50205;
1870,000;229,34931;360,41052;469,63889;480,92201;403,40506;
1868,000;172,68475;380,50596;502,83825;490,81359;430,77733;
1866,000;244,30649;359,81287;423,19338;426,98112;394,03969;
1864,000;217,33779;369,2013;492,89041;452,63419;420,94546;
1862,000;232,8953;361,48201;474,09539;453,13479;403,62718;
1860,000;220,53769;372,54203;452,29283;440,67307;398,84355;
1858,000;224,6334;396,50654;503,5535;516,51653;399,32822;
1856,000;226,27274;355,31749;509,59068;504,4451;390,8428;
1854,000;213,34077;383,86976;532,65964;496,18747;394,40688;
1852,000;213,8612;354,72118;489,71239;462,30929;457,72897;
1850,000;216,49066;401,39878;511,42638;479,98546;401,04038;
1848,000;228,62934;414,82841;493,75452;469,14771;420,78877;
1846,000;243,9832;374,81988;534,3962;478,86055;414,35919;
1844,000;218,70361;379,68256;484,59371;473,39359;442,17719;
1842,000;218,26336;391,08586;477,77576;487,07521;379,89182;
1840,000;249,87033;396,40574;508,68565;495,28957;424,14923;
1838,000;222,85838;400,9814;500,98122;468,15902;438,16221;
1836,000;243,56893;406,17549;499,83852;463,35347;435,75274;
1834,000;258,74243;380,22665;520,1014;511,12976;425,90175;
1832,000;244,30558;392,51058;521,02979;530,52876;411,43339;
1830,000;245,58869;397,649;516,02896;511,4937;439,83663;
1828,000;252,58198;420,85148;542,65279;489,8334;446,10858;
1826,000;230,78111;436,22836;511,99421;519,84769;452,97013;
1824,000;233,41793;400,74019;532,48372;507,38694;412,8954;
1822,000;259,95256;392,58554;500,32927;495,02158;442,73043;
1820,000;219,55725;410,08693;514,69749;513,08674;448,50976;
1818,000;243,14989;404,24388;511,91133;501,23844;443,70569;
1816,000;257,94108;396,19686;516,71548;509,49951;427,30641;
1814,000;255,11036;394,99315;483,74606;509,82524;436,82995;
1812,000;262,28248;387,67983;516,35526;533,83869;437,81867;
1810,000;263,92097;406,82892;526,48375;513,28564;442,13403;
1808,000;257,64968;408,26312;498,50425;503,93835;449,37522;
1806,000;255,84765;410,25155;539,25962;504,56406;427,2571;
1804,000;267,51343;416,57167;495,38244;485,09557;450,87526;
1802,000;262,14199;443,92541;536,97774;514,73491;452,34866;
1800,000;234,86493;426,64279;525,54793;520,44594;438,53052;
1798,000;301,8194;413,0439;510,01967;536,90401;440,57403;
1796,000;246,66703;423,45074;525,78626;524,27063;446,53687;
1794,000;260,15564;400,00317;545,76986;523,34024;447,46519;
1792,000;252,87265;420,3076;530,83285;522,04011;477,86784;
1790,000;268,61251;410,05081;538,53671;494,28543;443,61219;
1788,000;273,34083;423,97543;541,83738;476,50537;442,56387;
1786,000;283,77008;408,59656;512,54975;510,53347;452,47466;
1784,000;252,39252;408,25606;539,54467;515,47497;493,52865;
1782,000;268,22642;430,22624;515,79188;512,85732;442,43526;
1780,000;262,06119;460,31503;559,34167;507,4818;462,43973;
1778,000;245,35957;433,78015;558,37595;519,76836;470,30857;
1776,000;265,5649;434,94683;565,28652;532,26002;476,3117;
1774,000;261,48392;433,54479;526,61675;516,12158;453,61909;
1772,000;288,28657;443,84823;577,08532;522,53377;439,37382;
1770,000;267,68217;475,73458;529,77712;539,79327;469,14417;
1768,000;283,15678;452,33059;553,28487;519,39837;463,42741;
1766,000;261,46362;431,60698;568,30816;531,07469;464,17578;
1764,000;270,56419;451,86075;558,77496;536,10641;453,78233;
1762,000;274,32044;455,76567;564,43383;547,61369;440,18259;
1760,000;263,65009;449,63845;574,78455;545,76166;451,44871;
1758,000;297,86446;435,30252;600,77564;561,89148;458,79482;
1756,000;279,76994;455,44856;581,06754;551,23595;513,55807;
1754,000;281,20287;445,2103;596,9016;577,37989;491,42973;
1752,000;293,80695;471,36568;639,82931;607,90415;460,52058;
1750,000;301,78903;457,27246;602,07681;607,33189;436,59467;
1748,000;295,16414;476,43612;633,67396;594,12849;497,2916;
1746,000;283,50682;461,39312;668,41453;602,79981;492,12501;
1744,000;288,81744;502,41891;699,8582;636,86446;512,40319;
1742,000;263,65134;517,9018;736,01618;651,99894;556,78944;
1740,000;265,70076;527,17507;781,00879;688,06055;567,548;
1738,000;260,86375;560,18032;827,85048;692,11769;588,41722;
1736,000;288,19165;594,08241;850,53688;707,10781;575,6461;
1734,000;294,0837;676,56007;904,31879;713,48002;575,00034;
1732,000;295,95417;741,10084;947,78674;766,319;597,90891;
1730,000;305,30663;826,86753;1023,0754;736,82637;594,73918;
1728,000;311,60149;1004,0024;1007,5993;766,04024;654,79486;
1726,000;323,61434;1132,324;1021,9634;736,88563;633,50165;
1724,000;302,7064;1215,0933;1034,4475;774,50237;651,19617;
1722,000;300,15037;1399,9713;1062,3146;756,42862;644,62198;
1720,000;297,35586;1426,2828;1098,4164;789,24176;667,48304;
1718,000;290,90764;1430,2584;1053,8032;785,85159;624,79289;
1716,000;306,6565;1414,4777;1054,3117;749,95458;653,32275;
1714,000;300,79275;1398,8553;1011,0053;746,95546;651,5677;
1712,000;306,39115;1357,098;974,04979;770,61617;624,07024;
1710,000;312,83902;1247,3152;1012,6127;762,98096;619,55709;
1708,000;298,82345;1228,0666;954,10332;763,81935;628,24271;
1706,000;296,72499;1162,2477;959,56829;717,29207;618,3587;
1704,000;323,62092;1125,0567;931,88921;721,37602;586,84007;
1702,000;315,40659;1078,759;928,90888;683,35798;598,90393;
1700,000;325,58742;1071,7829;927,97956;705,57757;583,69568;
1698,000;350,93167;1040,0867;800,2314;700,1543;595,24025;
1696,000;337,99713;975,65812;828,3529;683,35601;587,77422;
1694,000;359,25296;888,99605;803,33575;696,15214;583,56542;
1692,000;329,17375;832,4264;787,45599;682,11452;578,4137;
1690,000;312,94415;798,50692;765,16342;674,24683;577,7554;
1688,000;335,80449;749,75439;764,53178;685,1033;578,81798;
1686,000;322,89508;724,31239;748,08612;707,46067;573,81594;
1684,000;315,43907;698,37044;760,09092;696,69485;599,88381;
1682,000;370,69514;716,79508;769,22242;703,70307;587,44777;
1680,000;332,29786;687,38843;738,7961;698,77047;596,41095;
1678,000;329,02888;676,60137;749,41086;683,24615;560,71893;
1676,000;356,16738;698,32539;752,71144;679,54831;583,97468;
1674,000;342,85815;688,6302;759,34116;728,08408;567,71699;
1672,000;362,46538;713,16019;768,44882;689,45308;580,74049;
1670,000;347,97898;736,00226;771,67614;701,43943;578,18475;
1668,000;347,0244;730,47147;748,52842;701,44355;576,97832;
1666,000;358,05105;746,56011;778,44506;691,10108;560,46172;
1664,000;350,05859;730,62799;793,21605;694,20743;599,14477;
1662,000;325,82133;794,71924;793,84226;693,87158;618,88863;
1660,000;367,98145;825,54243;775,33451;699,76026;596,0394;
1658,000;360,29748;836,50496;811,25171;708,52856;609,12598;
1656,000;341,92064;905,23845;832,49489;728,71876;599,93192;
1654,000;357,21186;924,05389;822,00741;751,12803;611,95034;
1652,000;356,03033;973,0459;846,43789;714,93202;610,68954;
1650,000;327,32403;1067,4373;870,81022;746,06198;606,57564;
1648,000;359,09748;1287,5708;864,94659;729,01989;640,44366;
1646,000;348,5626;1538,0544;942,94703;763,91405;638,23023;
1644,000;363,97742;1952,1427;1037,1035;780,80525;667,07499;
1642,000;357,58847;2522,3716;1132,2571;770,16029;686,37395;
1640,000;348,51257;3070,2417;1199,1413;829,5131;720,08394;
1638,000;376,9529;3485,2669;1253,1196;847,05721;717,54606;
1636,000;338,42909;3946,8561;1303,2977;836,3637;713,7757;
1634,000;374,76496;5130,8439;1381,8497;896,65847;754,00591;
1632,000;348,7297;6791,384;1470,2549;897,99082;749,52942;
1630,000;349,40509;7145,0994;1572,6512;972,76072;778,06165;
1628,000;355,63478;5235,6603;1445,5535;939,25691;785,23659;
1626,000;359,02361;3419,1206;1391,8168;1002,6586;796,58674;
1624,000;357,80228;2420,1672;1377,8758;1040,6511;811,04537;
1622,000;372,79083;2103,8114;1490,5558;1096,5539;880,49124;
1620,000;352,36836;2125,019;1733,461;1183,5748;951,55839;
1618,000;360,7358;2180,7629;1976,9214;1324,6375;1042,7615;
1616,000;354,21425;2344,7552;2334,8527;1564,582;1127,4083;
1614,000;364,49647;2498,9963;2787,9686;1800,6237;1322,484;
1612,000;368,95842;2766,3883;3229,4472;2086,0632;1437,9738;
1610,000;357,32156;3043,6587;3603,081;2226,3361;1621,0816;
1608,000;385,86765;3204,8471;3876,1795;2378,6183;1685,5582;
1606,000;362,04231;3357,8489;3971,9853;2539,5436;1712,5586;
1604,000;351,26988;3945,0752;4015,6525;2606,7545;1768,4852;
1602,000;371,29879;4964,9124;3874,1255;2512,6928;1749,9358;
1600,000;370,44815;4957,3793;3397,1422;2311,4604;1575,1389;
1598,000;393,59271;3533,562;2709,1831;1850,6597;1345,1858;
1596,000;390,73312;2377,0503;2044,2972;1466,8161;1089,3729;
1594,000;361,80798;1755,6867;1713,5331;1250,6737;956,09909;
1592,000;358,86107;1455,1458;1488,463;1111,3823;884,5871;
1590,000;370,88372;1318,46;1386,5244;1105,6173;850,49304;
1588,000;385,25194;1186,639;1472,9506;1167,6271;869,39833;
1586,000;353,26385;1204,1605;1759,0458;1278,3395;975,50601;
1584,000;373,14609;1275,1955;1959,2653;1470,4431;1079,4592;
1582,000;382,88478;1266,0193;2027,7069;1449,3945;1072,2575;
1580,000;363,48959;1256,2271;1801,0449;1289,9083;939,25298;
1578,000;380,67368;1326,7125;1539,7805;1121,9186;851,72618;
1576,000;399,89667;1441,4242;1267,5327;1021,1589;814,95025;
1574,000;374,62229;1334,1331;1181,1323;962,73442;740,48223;
1572,000;376,16459;1073,5928;1051,2054;870,66658;725,23773;
1570,000;371,39129;984,40902;956,27376;827,79918;723,51363;
1568,000;375,91182;903,03789;924,19556;812,78171;675,91687;
1566,000;408,66293;810,92005;901,16742;813,15858;691,97502;
1564,000;378,72129;812,47266;864,95394;768,75133;668,62847;
1562,000;389,32514;809,01405;831,15157;749,45425;663,80707;
1560,000;365,00088;787,3759;876,54744;763,51389;665,2953;
1558,000;397,67968;812,90314;840,07189;763,90989;658,05595;
1556,000;419,7933;833,64925;859,91028;755,7751;607,55545;
1554,000;420,18626;804,3219;825,84927;747,53636;640,66315;
1552,000;405,74774;773,47105;808,2507;780,46821;622,29267;
1550,000;404,22699;778,47479;799,33086;720,41969;641,57167;
1548,000;410,75268;758,96154;854,81181;730,18943;642,99318;
1546,000;387,98472;765,0277;833,42463;748,03483;647,1921;
1544,000;413,36429;770,67317;811,7159;790,13068;637,48495;
1542,000;412,64156;720,79197;826,87906;781,71334;650,24158;
1540,000;387,61009;712,36021;811,15348;766,62446;643,22133;
1538,000;382,66281;749,04679;846,50813;728,94422;662,16387;
1536,000;399,58323;667,45878;798,72724;760,50629;647,24271;
1534,000;395,75083;687,43282;793,57553;772,12401;640,48748;
1532,000;386,19413;670,04837;813,76381;779,06687;657,32894;
1530,000;390,49762;673,33633;815,91316;770,1804;664,6619;
1528,000;391,03091;677,05631;812,24714;750,84676;647,021;
1526,000;405,98105;682,60552;818,04289;743,12203;626,77318;
1524,000;375,4288;687,18303;815,87586;733,04327;620,6462;
1522,000;410,81377;688,572;802,18876;750,3092;646,48896;
1520,000;414,27204;700,84608;857,15048;812,27683;641,52968;
1518,000;415,76682;735,05053;858,56632;792,49317;680,25464;
1516,000;401,7684;718,42625;860,80533;798,34456;685,61096;
1514,000;385,80414;741,74147;885,05222;836,80379;662,70685;
1512,000;416,14832;756,60209;912,27284;818,66043;680,12394;
1510,000;422,90472;730,8754;910,23123;861,48019;689,49812;
1508,000;390,91085;741,02449;888,00355;769,31445;692,60285;
1506,000;413,41465;706,08898;852,24516;780,35098;725,309;
1504,000;403,86598;702,69862;902,51051;803,43698;665,40651;
1502,000;388,96847;707,70011;887,72363;772,85016;627,07815;
1500,000;391,18467;736,81559;873,7913;760,08172;680,79406;
1498,000;376,17501;747,74187;902,29508;776,77565;671,01325;
1496,000;384,91865;854,23915;914,43097;808,92369;682,38049;
1494,000;395,87214;877,87144;941,30252;791,62798;680,19267;
1492,000;371,03304;795,31198;923,81639;786,89643;684,76186;
1490,000;403,60792;753,81227;946,89861;797,8248;670,35596;
1488,000;416,30946;746,17014;965,32998;805,79908;699,26714;
1486,000;432,5726;732,53666;990,07082;835,15893;694,81668;
1484,000;393,53342;740,71056;1051,0097;849,56869;731,54253;
1482,000;375,94817;780,55624;1111,9748;902,46373;750,28009;
1480,000;382,31023;803,53807;1155,3146;923,88332;752,24797;
1478,000;390,92505;915,37516;1250,0194;952,1701;798,93046;
1476,000;397,61161;869,88394;1352,8546;1559,8515;861,02096;
1474,000;391,83741;1043,7476;1440,4094;1557,5847;862,17174;
1472,000;373,64055;1077,673;1581,5873;1195,0996;921,90869;
1470,000;371,55986;1117,2947;1703,7287;1209,193;969,8001;
1468,000;398,67456;1211,1888;1826,6825;1281,2782;1002,0663;
1466,000;387,49279;1292,9519;1885,5246;1303,3994;1012,3778;
1464,000;401,42186;1319,661;2053,0642;1404,8997;1069,7178;
1462,000;352,96369;1372,4837;2059,6485;1407,0347;1088,3359;
1460,000;378,19928;1362,2094;2116,5517;1413,0846;1111,8997;
1458,000;383,15138;1362,0293;2050,6371;1472,28;1105,0176;
1456,000;402,64659;1298,0913;2099,2602;1481,4574;1094,7835;
1454,000;360,87798;1367,5483;2117,895;1482,8072;1147,8207;
1452,000;365,67985;1412,5222;2145,1136;1499,3918;1091,535;
1450,000;396,99471;1348,6474;2071,7375;1483,471;1121,382;
1448,000;418,29784;1325,9025;2064,8163;1508,0174;1151,667;
1446,000;413,92203;1315,1529;2077,2558;1514,7965;1098,9281;
1444,000;388,25922;1259,9649;2042,9592;1486,2934;1098,7705;
1442,000;389,06936;1200,151;1914,9522;1375,1633;1013,0353;
1440,000;394,19627;1199,0459;1765,8386;1292,2839;1034,6709;
1438,000;372,82295;1134,4495;1564,662;1185,176;893,31311;
1436,000;388,24733;1086,2551;1404,809;1126,9491;816,77584;
1434,000;411,44134;1046,2819;1300,9605;1034,4269;853,66142;
1432,000;419,69412;1084,2677;1201,9118;987,99635;794,68075;
1430,000;387,03694;1046,8821;1140,6618;912,9555;792,67627;
1428,000;426,78816;1092,1577;1138,0121;894,70121;733,37183;
1426,000;411,30328;1164,4098;1135,6765;877,22834;751,72101;
1424,000;395,61034;1285,0515;1079,9785;860,71932;704,29383;
1422,000;398,65464;1368,3694;1085,4073;870,11546;734,41515;
1420,000;415,45673;1566,3896;1119,8954;886,72432;722,00665;
1418,000;406,41258;1727,8538;1123,3137;912,20551;724,09881;
1416,000;383,0034;2032,6082;1207,7089;884,18906;760,68471;
1414,000;399,75994;2255,932;1222,3987;929,32082;804,46158;
1412,000;406,80988;2388,5091;1199,7121;962,44823;761,35815;
1410,000;399,75413;2392,9507;1281,1363;964,56201;808,39186;
1408,000;411,24336;2296,9727;1267,7319;896,57923;777,91595;
1406,000;431,76491;2200,607;1221,4641;920,92692;739,4;
1404,000;419,55452;2075,9253;1229,2428;909,32084;791,41959;
1402,000;475,83581;1987,9128;1239,3169;942,10103;831,40712;
1400,000;443,76192;1880,2899;1233,6472;931,74001;788,99375;
1398,000;430,06407;1640,4496;1228,1253;903,45737;819,10088;
1396,000;472,71028;1479,3599;1195,0303;958,08983;808,09556;
1394,000;448,15811;1269,243;1183,4888;955,26357;762,72661;
1392,000;441,06532;1174,6381;1203,7804;984,16618;803,60125;
1390,000;428,60449;1155,1314;1177,9017;992,50336;807,47688;
1388,000;451,81126;1122,9818;1219,4749;976,86117;860,815;
1386,000;423,52187;1112,4916;1250,1463;1066,7632;806,63311;
1384,000;456,83709;1115,2741;1278,1961;1004,2653;812,04152;
1382,000;439,42406;1179,7498;1275,9904;1035,8132;853,82458;
1380,000;418,01637;1220,74;1283,5677;1047,6028;826,17349;
1378,000;452,02377;1163,9748;1268,2154;1021,0578;837,16041;
1376,000;486,70685;1161,1805;1276,0414;987,30212;854,8623;
1374,000;470,69774;1157,5206;1250,2889;1023,7184;850,27673;
1372,000;466,62442;1045,571;1260,2182;1012,1884;822,67365;
1370,000;475,27681;994,77015;1216,9633;1031,1779;812,03302;
1368,000;455,52091;935,68032;1210,7127;1021,2071;847,04102;
1366,000;484,12777;927,02445;1242,6785;1046,5971;815,61612;
1364,000;465,09233;890,59808;1264,4423;1052,2034;835,78745;
1362,000;471,95651;916,54848;1242,2395;1053,409;813,63581;
1360,000;463,25681;899,67472;1228,4088;1024,6784;861,43909;
1358,000;480,14512;884,18169;1205,6222;1046,426;833,26187;
1356,000;466,92338;859,01291;1231,4412;1022,7938;839,71818;
1354,000;458,65618;849,83905;1217,4213;1028,0693;823,6264;
1352,000;485,33807;846,86156;1199,3015;997,93089;823,42089;
1350,000;474,77034;844,64867;1210,9776;1029,4462;832,09934;
1348,000;445,98947;860,4688;1199,9739;1038,8068;828,42152;
1346,000;448,4381;842,71896;1175,7993;999,12506;792,98592;
1344,000;446,43354;876,80541;1229,8603;1041,3705;832,10633;
1342,000;456,77697;877,08384;1190,5609;1006,8651;805,10376;
1340,000;419,77158;913,16076;1191,9902;1004,843;820,72361;
1338,000;442,29986;938,65256;1227,4507;999,23009;789,92543;
1336,000;451,89294;1010,4892;1239,2103;996,04429;834,08156;
1334,000;457,03594;1066,394;1228,6004;1012,2209;809,96579;
1332,000;435,4732;1052,3096;1227,0635;1011,1851;806,19691;
1330,000;432,92515;1053,6006;1233,8537;1033,0769;832,96769;
1328,000;420,48417;1026,2439;1214,8158;1009,9555;799,38471;
1326,000;420,11627;1047,6342;1241,1516;1001,1885;837,10152;
1324,000;417,5698;1148,8593;1238,5745;1003,8167;786,529;
1322,000;408,7406;1295,1416;1268,1288;1008,5869;842,30967;
1320,000;412,81647;1493,473;1326,9459;999,10049;806,47942;
1318,000;406,35595;1653,0308;1352,7657;1003,2174;822,36547;
1316,000;399,5187;1654,59;1418,0618;1062,2516;827,40609;
1314,000;370,64415;1570,4041;1483,2502;1090,2282;860,88333;
1312,000;367,53362;1471,3086;1533,2256;1147,7056;882,52218;
1310,000;373,33308;1404,9654;1551,0946;1167,1943;890,32732;
1308,000;381,67245;1441,3736;1591,9965;1113,7313;886,20967;
1306,000;368,23789;1480,3952;1594,4943;1151,4054;904,18587;
1304,000;362,52498;1518,4084;1641,1421;1153,94;909,61951;
1302,000;352,15315;1543,2646;1643,9317;1194,1428;937,67738;
1300,000;324,53551;1519,7222;1698,8462;1247,1885;945,00398;
1298,000;325,41191;1493,0848;1753,6094;1230,4341;926,13094;
1296,000;326,3289;1434,7591;1747,6613;1207,3793;915,83775;
1294,000;348,20792;1340,4413;1705,2968;1198,315;912,57794;
1292,000;321,42816;1304,2559;1711,8932;1139,8879;888,01312;
1290,000;300,85408;1234,9717;1613,44;1144,5562;883,90877;
1288,000;320,51855;1158,8546;1537,5394;1106,7303;874,60487;
1286,000;294,43221;1098,8945;1493,985;1064,3936;857,82962;
1284,000;285,91184;1032,8876;1410,1702;1091,2797;817,38637;
1282,000;271,52168;965,65883;1346,0239;1015,2983;802,4973;
1280,000;262,50084;953,93238;1327,8559;1011,2252;804,94333;
1278,000;278,88177;868,32001;1275,7513;951,70851;757,3561;
1276,000;270,52804;859,40871;1277,6264;916,68458;760,0673;
1274,000;284,77736;902,6984;1284,0394;966,369;781,28972;
1272,000;259,18854;873,82983;1245,2168;934,32207;735,21478;
1270,000;260,95183;847,46997;1281,547;976,02749;759,6968;
1268,000;262,44186;828,80616;1308,272;980,80624;761,95403;
1266,000;246,97819;830,48764;1315,563;979,21181;761,44952;
1264,000;259,24087;865,51449;1348,4225;996,98916;783,28721;
1262,000;219,62323;856,67632;1387,3375;1029,1582;802,59515;
1260,000;238,77315;961,12776;1439,2677;1044,1164;803,01277;
1258,000;242,38494;968,79536;1542,3122;1057,594;806,69735;
1256,000;217,17112;1055,1321;1570,4821;1122,0734;852,03168;
1254,000;223,00441;1120,4547;1606,8425;1106,4681;873,36614;
1252,000;212,985;1165,7898;1701,8438;1147,61;887,91639;
1250,000;216,70977;1161,745;1688,2031;1160,194;895,9851;
1248,000;219,81137;1184,0548;1710,4262;1190,9177;895,07272;
1246,000;200,05454;1154,0135;1727,7625;1203,763;900,71212;
1244,000;207,27682;1098,0878;1720,1169;1193,032;894,79444;
1242,000;190,72655;1125,3185;1756,4693;1174,0559;923,54066;
1240,000;211,3221;1109,5255;1797,4558;1238,2014;936,02192;
1238,000;189,1619;1129,5724;1878,3397;1197,5701;930,82492;
1236,000;202,57206;1190,0951;1924,5309;1242,4577;972,31634;
1234,000;188,77118;1262,6476;1967,0717;1348,9528;967,6809;
1232,000;189,91472;1311,0797;2032,3812;1329,1968;1004,0152;
1230,000;191,57169;1335,7464;2138,1241;1368,186;1025,7128;
1228,000;208,12326;1362,9053;2221,4742;1403,9014;1050,9712;
1226,000;191,88278;1364,8618;2200,116;1420,6646;1069,8305;
1224,000;179,15388;1297,3139;2193,8116;1417,3725;1074,9953;
1222,000;189,88141;1265,2793;2165,5071;1440,3377;1055,8183;
1220,000;180,289;1205,8512;2159,7569;1455,397;1022,4118;
1218,000;180,27708;1196,9051;2107,4138;1384,547;1015,7493;
1216,000;180,10903;1162,7124;2032,6428;1371,9341;1002,2768;
1214,000;172,36365;1137,5609;1965,498;1329,8642;972,61077;
1212,000;175,90627;1148,139;1964,2215;1303,3057;954,39022;
1210,000;174,26761;1161,135;1830,4642;1282,7927;930,61804;
1208,000;185,88909;1393,8402;1778,9274;1286,5141;937,76658;
1206,000;184,58049;1739,7804;1785,2165;1259,4514;893,39254;
1204,000;176,49537;2208,2341;1815,5213;1325,6493;941,52425;
1202,000;182,8975;2327,1253;1869,1182;1344,2925;953,04242;
1200,000;168,97681;2089,8826;1912,0905;1314,2003;939,09739;
1198,000;162,76241;1639,4727;1935,0862;1369,9859;1012,0486;
1196,000;167,92563;1287,3739;2026,2552;1424,3885;1019,7066;
1194,000;176,84079;1189,4213;2133,529;1523,2753;1078,7437;
1192,000;167,25794;1282,6936;2456,4624;1635,9672;1176,2208;
1190,000;186,20117;1470,5964;2778,9585;1804,1834;1281,0649;
1188,000;163,59803;1769,3003;3081,896;1980,3842;1421,963;
1186,000;171,0135;2016,9081;3344,4376;2132,9255;1509,1065;
1184,000;188,94516;2145,9126;3406,8272;2192,024;1510,9234;
1182,000;159,46893;2183,9001;3203,9383;2067,8833;1438,6967;
1180,000;171,71293;1978,4417;2894,3014;1888,6882;1353,5134;
1178,000;158,50623;1517,4522;2367,1564;1563,3352;1143,8584;
1176,000;155,71755;1142,3491;1845,6312;1290,0383;948,86953;
1174,000;174,48742;922,2449;1547,7928;1118,6347;848,15782;
1172,000;164,8891;790,46368;1359,3016;1020,1752;812,60231;
1170,000;162,13327;741,74128;1239,0456;968,76062;757,96642;
1168,000;175,64799;683,26041;1171,1055;910,38785;702,29668;
1166,000;147,40822;684,77429;1117,0116;893,10679;719,42418;
1164,000;160,8466;672,26869;1092,2817;849,12293;692,44884;
1162,000;162,48238;736,26816;1145,5241;902,81046;695,13484;
1160,000;161,64399;815,96716;1225,695;987,53333;770,30326;
1158,000;151,3134;961,67957;1411,0836;1054,856;823,99776;
1156,000;146,4785;1083,047;1504,1261;1151,1511;874,01332;
1154,000;148,06996;997,79835;1536,4113;1126,8072;843,85841;
1152,000;125,9943;846,39169;1392,6262;1056,5059;801,5224;
1150,000;144,66209;764,87689;1285,7188;950,36704;763,91135;
1148,000;149,8871;667,55702;1231,4795;943,01988;724,33322;
1146,000;119,66622;693,16222;1195,9107;941,78454;736,32241;
1144,000;141,93786;674,19098;1193,0779;914,52754;753,26688;
1142,000;126,0332;622,53985;1170,6232;895,18143;686,52494;
1140,000;138,31813;619,11768;1129,1376;892,35546;700,83815;
1138,000;126,132;615,54855;1126,4515;854,57579;695,43051;
1136,000;138,84544;645,42863;1134,4416;860,54345;721,0331;
1134,000;125,04193;652,57313;1171,5946;879,48424;700,39105;
1132,000;139,91183;705,46605;1208,6844;888,94217;690,34649;
1130,000;136,3439;680,16887;1217,0454;909,36664;713,21707;
1128,000;132,24373;720,46541;1289,3614;912,20552;770,3597;
1126,000;127,51442;790,84572;1357,5532;933,36003;788,31861;
1124,000;117,17153;857,0765;1480,4616;1031,6192;806,79997;
1122,000;141,91798;1022,0046;1655,5783;1139,7728;875,51915;
1120,000;134,41061;1208,0397;1924,7856;1243,8508;977,3029;
1118,000;132,51326;1443,6982;2324,2041;1471,5616;1108,7058;
1116,000;112,68765;1779,875;2789,0843;1782,6293;1273,8575;
1114,000;118,84805;2080,1407;3267,7266;1969,9682;1428,3303;
1112,000;107,061;2081,6656;3319,9532;1974,4822;1491,7565;
1110,000;119,73326;1834,8899;3045,6415;1761,8964;1324,6228;
1108,000;120,45277;1486,0585;2545,8978;1534,5317;1157,1447;
1106,000;132,43453;1216,8697;2029,1762;1334,2558;973,92958;
1104,000;129,0897;979,99577;1696,3602;1163,8182;872,49395;
1102,000;120,04503;853,51588;1489,0618;1020,4881;823,3977;
1100,000;106,33115;730,65276;1343,5681;930,70958;752,68398;
1098,000;92,940474;704,59977;1217,0003;898,17183;716,61262;
1096,000;106,45671;681,83927;1150,8054;839,07238;707,88791;
1094,000;103,78142;651,68059;1051,0515;869,38413;686,22992;
1092,000;129,45738;626,19274;1033,5732;838,87761;674,75357;
1090,000;98,70005;645,81847;1051,9804;808,07742;696,24925;
1088,000;104,63382;702,09499;1104,2248;829,88353;703,30111;
1086,000;94,86255;709,28457;1104,3538;855,27499;686,99481;
1084,000;100,41918;652,32818;1088,6998;860,61332;681,30408;
1082,000;97,464006;597,25221;1016,2261;842,22308;690,03147;
1080,000;101,32547;552,01414;938,97777;800,18424;664,68202;
1078,000;113,59264;516,50839;960,17861;760,20503;660,74764;
1076,000;100,02642;511,62839;942,52642;752,9439;668,55703;
1074,000;101,78155;506,09556;957,35371;773,09917;635,91421;
1072,000;87,143147;478,54413;918,56873;745,49589;645,50255;
1070,000;99,635406;501,21797;937,45281;777,08749;622,96999;
1068,000;118,78294;494,59644;930,35031;770,64955;624,99908;
1066,000;107,5887;508,71096;946,11341;771,71413;627,82261;
1064,000;99,643546;484,30924;955,49297;785,13639;654,83076;
1062,000;119,38383;515,05359;964,47431;802,64048;659,97466;
1060,000;110,10201;489,507;984,78515;843,59393;643,16694;
1058,000;79,414311;554,95288;1041,4936;822,56121;680,38481;
1056,000;88,206728;573,56556;1089,7091;814,55569;728,0472;
1054,000;110,91565;609,27797;1176,0616;899,11184;744,94263;
1052,000;77,352195;561,18267;1183,297;930,22605;714,18658;
1050,000;95,744444;617,81295;1147,9156;933,31275;719,82342;
1048,000;82,760166;586,52752;1243,6675;892,89111;775,91046;
1046,000;92,343295;614,01168;1274,9155;987,8683;754,29277;
1044,000;85,383052;595,42955;1311,834;1013,6556;766,56616;
1042,000;80,817602;589,87311;1464,0592;1071,6322;813,03503;
1040,000;89,326421;651,19773;1601,784;1210,3978;892,17458;
1038,000;95,993434;763,48464;1860,7927;1353,8791;978,50127;
1036,000;78,543941;971,71436;2187,3045;1561,4353;1047,665;
1034,000;87,03946;1123,5543;2488,7703;1794,6683;1239,789;
1032,000;84,368891;1039,7683;2676,0675;1990,2078;1308,4179;
1030,000;87,291516;862,12532;2443,2191;1797,1378;1229,5323;
1028,000;82,739689;785,26969;1968,5007;1468,7412;1014,1527;
1026,000;87,953136;807,02174;1515,1668;1219,55;844,78789;
1024,000;66,912935;833,51336;1269,1473;1021,1041;771,37734;
1022,000;84,630383;927,32693;1081,9353;885,72866;645,12744;
1020,000;49,511412;887,0078;999,95743;829,91134;665,45188;
1018,000;86,037967;788,64383;1113,7653;844,03085;658,95117;
1016,000;91,131696;820,87159;1184,8877;892,14224;705,42159;
1014,000;56,751563;826,11902;1283,4521;950,24591;713,76412;
1012,000;74,142302;828,11755;1354,0691;1030,6788;791,39114;
1010,000;83,507382;841,64531;1491,5485;1107,6287;870,10562;
1008,000;69,35809;948,79204;1997,26;1457,5663;982,60459;
1006,000;79,969676;1093,531;3205,5921;2383,0084;1514,422;
1004,000;66,275824;1699,8922;5676,9265;4053,3549;2499,6262;
1002,000;78,845683;3815,723;7445,2007;5284,5335;3253,7646;
1000,000;73,967744;6553,2549;6111,6801;4354,7214;2694,7507;
998,000;69,30142;5532,0896;3547,6638;2473,8943;1569,3169;
996,000;75,632519;2529,0304;2078,9796;1558,1198;1086,8958;
994,000;82,281421;1361,4437;1592,1024;1188,7308;860,55067;
992,000;63,955597;1066,9196;1379,3081;1132,0977;817,10273;
990,000;58,485372;883,22315;1241,1954;1008,4075;744,683;
988,000;59,950488;838,69663;1165,588;957,93133;705,02824;
986,000;70,251702;756,05161;1094,9491;857,82365;700,2765;
984,000;66,599947;643,51268;1010,0692;794,90969;657,43599;
982,000;72,398115;545,68026;985,02326;785,94691;651,00046;
980,000;69,652222;502,46956;957,51678;776,54551;638,33337;
978,000;73,632299;482,14307;948,53652;756,45131;666,60298;
976,000;62,171252;442,22621;962,63796;794,53174;642,60593;
974,000;67,585078;458,03644;987,52736;796,4453;631,68402;
972,000;71,875572;413,0509;998,0116;750,32987;676,30244;
970,000;66,994171;425,36886;1015,2242;761,8804;654,48704;
968,000;67,806109;436,80157;1012,477;798,54182;636,53402;
966,000;64,693713;451,80889;1001,3198;797,22403;616,08639;
964,000;66,315315;449,12948;1019,4474;777,03681;656,54353;
962,000;75,818667;467,85394;1056,0145;775,05356;656,15621;
960,000;55,047616;503,85182;1031,1326;801,74955;650,56973;
958,000;69,293464;536,87552;1047,399;830,55525;664,37282;
956,000;71,043255;590,29724;1067,5802;822,94428;661,31415;
954,000;95,432011;586,46871;1053,4135;815,5936;679,25144;
952,000;62,448612;619,89525;1033,9055;796,17723;664,14319;
950,000;65,129573;610,75636;1091,8577;790,17597;678,6445;
948,000;74,944907;661,00228;1122,93;827,24301;722,83135;
946,000;67,813;694,99663;1177,8334;828,71526;709,05067;
944,000;67,109616;740,19322;1183,9;885,47889;707,88199;
942,000;80,935826;761,22192;1266,0529;885,07311;738,6517;
940,000;72,015223;843,2499;1301,4569;964,35352;791,96741;
938,000;62,071604;848,21908;1335,3059;965,36798;801,00696;
936,000;74,588612;876,30648;1392,5725;998,98763;801,48635;
934,000;73,930648;890,79462;1437,5909;1044,2265;812,25665;
932,000;53,95537;889,4852;1436,0441;1006,7486;819,99459;
930,000;82,079774;888,66932;1452,4153;1023,7015;801,52281;
928,000;70,7386;890,2758;1418,1963;985,18895;830,43354;
926,000;64,549079;895,34847;1451,4541;968,22379;784,25008;
924,000;68,271403;867,1268;1366,5901;1002,4264;775,87057;
922,000;79,694556;843,97484;1370,8301;975,16191;780,71504;
920,000;67,785135;867,71202;1403,779;985,56091;760,66215;
918,000;67,273009;888,26559;1390,4817;960,70061;806,37135;
916,000;66,092151;927,79673;1389,407;967,9672;820,33252;
914,000;71,441541;936,64998;1403,9766;1022,1766;812,1736;
912,000;72,019447;973,42093;1428,0871;1033,1688;827,42166;
910,000;81,758009;985,62368;1420,7607;1000,6406;818,90286;
908,000;64,177153;929,83975;1385,5994;966,63902;793,97282;
906,000;60,844579;874,33086;1263,83;927,094;769,40943;
904,000;66,086593;835,44889;1188,3198;901,7508;737,34473;
902,000;71,204888;830,81998;1138,7265;882,27214;733,16466;
900,000;68,048419;836,26677;1142,0953;870,73895;720,3917;
898,000;68,008446;841,55814;1174,2868;870,45576;719,36154;
896,000;66,169845;888,40471;1141,3599;874,58225;693,53424;
894,000;76,128734;873,80712;1151,9069;859,64949;741,65932;
892,000;74,35173;887,67503;1187,9704;876,37207;715,71533;
890,000;60,485085;934,47552;1180,334;861,40541;766,88306;
888,000;85,607565;926,31414;1228,2863;885,7462;759,13756;
886,000;57,00265;949,36954;1242,3682;884,52892;760,61581;
884,000;65,949986;951,36885;1265,6406;918,94286;769,5334;
882,000;58,109854;958,39699;1319,0577;918,8161;777,21903;
880,000;73,038001;932,32579;1348,4351;937,34576;809,78327;
878,000;77,459844;918,44545;1321,0521;941,37639;751,76249;
876,000;68,269731;887,05703;1355,907;971,5383;787,54602;
874,000;70,440951;908,22128;1346,7207;962,46344;783,29398;
872,000;84,219994;848,73591;1310,5558;917,69845;773,42095;
870,000;74,680246;812,82367;1348,0707;933,11194;761,00047;
868,000;59,283684;805,2683;1293,05;904,88301;767,57467;
866,000;69,064056;786,48371;1317,2172;949,98063;760,98957;
864,000;79,839555;775,40049;1281,8877;918,35967;763,16035;
862,000;65,470354;789,66755;1291,9524;973,53405;775,837;
860,000;70,129188;824,06885;1327,1301;966,32047;791,40163;
858,000;63,906927;799,87552;1336,7528;966,16259;795,96509;
856,000;69,91249;851,59277;1380,0404;1013,6139;817,39409;
854,000;80,10457;883,51874;1436,9265;1052,3868;827,08457;
852,000;68,104688;924,0386;1538,9832;1028,6738;863,53553;
850,000;75,330986;1005,1921;1577,1163;1100,9865;877,88346;
848,000;73,369933;1073,1479;1649,674;1128,7714;893,57933;
846,000;74,998652;1145,4698;1765,4946;1198,937;953,81894;
844,000;70,956973;1201,0521;1889,7835;1269,7391;971,00637;
842,000;65,554079;1275,8306;1975,7925;1362,5039;1025,8528;
840,000;67,302272;1345,9884;2135,1812;1394,2483;1075,5344;
838,000;66,222095;1470,3415;2229,3697;1440,0567;1134,4127;
836,000;61,918335;1511,266;2274,2992;1455,2726;1147,488;
834,000;68,897072;1646,7418;2374,8904;1507,8899;1144,5097;
832,000;67,244527;1683,7449;2439,2406;1503,4118;1144,0288;
830,000;72,04834;1724,0121;2482,9756;1503,2036;1174,7102;
828,000;74,882324;1741,6789;2458,8577;1529,1671;1207,6832;
826,000;58,540779;1871,7841;2519,5698;1548,9381;1238,3033;
824,000;83,65576;1937,8367;2576,7832;1618,9169;1234,5793;
822,000;73,581861;2004,516;2755,3904;1688,4516;1284,6396;
820,000;84,29344;2242,4483;2826,7103;1759,3193;1327,6034;
818,000;77,334876;2333,7836;2934,3874;1800,5189;1372,9683;
816,000;76,832412;2400,0866;3063,4362;1848,4946;1388,5047;
814,000;63,68071;2345,8113;3120,4101;1875,9467;1409,7792;
812,000;86,103941;2135,4282;3174,7996;1902,1222;1454,3639;
810,000;64,748607;1898,6822;3239,085;1941,4023;1426,0633;
808,000;75,247454;1769,9871;3224,9061;1951,7871;1453,0763;
806,000;83,436735;1626,731;3192,6981;1964,4762;1451,8079;
804,000;77,192742;1533,1746;3178,6154;1989,7893;1441,794;
802,000;83,095875;1346,4418;2998,4907;1900,8921;1384,6786;
800,000;65,160238;1169,6105;2708,2576;1731,4398;1298,7211;
798,000;74,727179;923,57516;2335,7401;1576,7775;1168,4676;
796,000;81,658709;777,69412;2064,786;1424,5114;1089,6458;
794,000;74,208826;667,31097;1861,6141;1295,4996;1029,9471;
792,000;75,62541;597,40436;1594,6019;1181,8997;920,38036;
790,000;65,475128;512,27578;1374,8987;1039,3471;824,6387;
788,000;78,065179;462,34197;1253,6261;955,07786;788,01111;
786,000;72,140149;461,56948;1145,0496;913,1379;760,95799;
784,000;64,086521;469,35282;1065,6699;905,12833;729,97027;
782,000;79,728246;492,9305;1050,8304;857,56375;722,80032;
780,000;72,761311;534,35712;994,42025;866,90274;707,63734;
778,000;74,338155;721,5717;975,57103;844,53495;722,16028;
776,000;79,988744;897,69524;1005,0686;833,04308;719,90529;
774,000;76,399685;1125,0885;1021,0204;846,63483;705,71884;
772,000;86,664861;1449,6974;1068,9758;866,5438;743,99836;
770,000;68,974621;1837,3258;1051,1207;872,19658;752,84663;
768,000;69,332596;1611,3722;1090,7419;853,44462;753,31471;
766,000;75,368935;1025,8233;1077,0802;885,18514;756,00947;
764,000;76,064088;736,93274;1099,2051;904,31877;752,02417;
762,000;80,161098;581,77515;1112,5428;943,85573;761,85146;
760,000;67,985464;525,84639;1158,205;949,92264;825,12905;
758,000;71,935795;489,18026;1187,8383;991,61138;827,03963;
756,000;64,37971;476,2616;1215,0588;1026,5091;837,18317;
754,000;85,619794;482,73089;1285,2925;1035,5046;846,25791;
752,000;83,477759;457,86707;1240,8793;1034,5004;843,4454;
750,000;71,891641;450,70436;1248,7711;1045,7722;842,53426;
748,000;76,485424;410,41591;1195,6363;1001,9602;841,35513;
746,000;88,342694;405,00754;1196,6314;981,90942;844,87261;
744,000;70,678261;404,72452;1163,3027;973,68822;826,2414;
742,000;74,170432;396,58799;1172,945;952,95718;812,64398;
740,000;81,688592;438,74545;1183,5136;985,88226;822,09373;
738,000;63,083963;480,80358;1192,9245;983,58378;844,24618;
736,000;68,962138;591,27974;1302,5315;1031,097;873,52343;
734,000;62,993954;694,91367;1398,359;1091,0424;877,08749;
732,000;81,268255;728,64749;1393,747;1091,4942;927,75741;
730,000;74,053853;662,57129;1227,2955;993,01499;860,71136;
728,000;86,846928;556,50881;1071,9935;895,51599;817,42925;
726,000;76,685629;519,99692;995,63543;840,88195;768,18402;
724,000;79,805272;479,38786;893,33283;757,87014;711,97006;
722,000;84,926445;462,83271;797,79245;733,85125;688,43218;
720,000;85,793041;427,61315;728,67172;680,16727;646,91792;
718,000;89,415241;392,10778;690,93504;653,11465;628,89263;
716,000;89,372276;383,44587;677,22591;660,68018;629,5369;
714,000;81,71079;379,40679;646,66525;642,23769;642,75951;
712,000;77,925673;376,54295;675,25331;674,16058;631,91892;
710,000;74,042676;411,37621;693,4645;668,61067;642,70374;
708,000;84,222614;386,56706;711,1514;705,00267;663,50465;
706,000;84,349778;402,92159;687,05953;673,79383;653,21857;
704,000;82,439288;435,44405;675,20821;650,49982;615,60017;
702,000;73,491713;470,72342;670,96478;683,55191;644,30146;
700,000;75,81791;482,25549;691,2783;662,71863;656,63071;
698,000;83,612591;469,70166;717,32105;671,28062;646,36441;
696,000;82,846877;496,81433;714,00211;683,24238;679,21572;
694,000;67,748732;499,03007;751,12156;666,56232;664,90159;
692,000;76,927222;490,45205;745,66121;716,69808;652,86343;
690,000;79,461341;480,83067;745,4642;699,301;670,54602;
688,000;71,614635;498,70897;733,64211;675,97141;700,80254;
686,000;75,658826;504,17261;776,13857;704,30086;706,58838;
684,000;73,386033;544,03607;821,59804;711,19643;687,42598;
682,000;71,62886;558,21842;865,8146;689,82598;681,7625;
680,000;80,067525;556,55406;854,46134;728,29251;710,21248;
678,000;75,410622;595,9869;886,59821;757,47931;712,42893;
676,000;76,219448;597,81576;905,34697;781,81345;692,40895;
674,000;87,088181;637,10702;907,01818;798,96949;725,83699;
672,000;79,887322;668,2367;996,20556;807,42598;763,94712;
670,000;86,995689;753,33406;1047,1691;838,17412;784,2063;
668,000;86,727933;757,12198;1112,2019;872,74997;817,8969;
666,000;87,093524;760,25196;1119,3503;870,5831;829,65278;
664,000;82,088369;715,8574;1050,3412;860,52309;780,99242;
662,000;70,078012;697,28936;1042,2167;810,46208;768,98435;
660,000;82,855943;625,18307;1006,1865;807,24444;776,86093;
658,000;89,999696;644,7715;1028,2518;814,6237;763,80324;
656,000;77,07481;640,41736;1010,4281;814,20038;772,24312;
654,000;90,386695;658,44733;1042,8286;834,31527;794,02678;
652,000;81,266273;667,96921;1063,2236;848,18993;798,54661;
650,000;71,889365;675,41133;1052,332;835,45024;773,12795;
648,000;93,774141;701,96323;1062,8045;831,09479;776,57359;
646,000;80,283054;709,74505;1098,4645;872,9539;822,72168;
644,000;81,494305;802,31841;1237,3927;953,46876;854,89843;
642,000;77,615311;935,07488;1511,1949;1073,9794;923,71737;
640,000;74,738019;1236,6439;1939,1587;1313,4422;1108,1835;
638,000;87,680266;1706,3308;2593,3067;1658,7918;1336,5872;
636,000;81,162698;1917,494;2910,0036;1805,5603;1437,0858;
634,000;99,620722;1507,6548;2285,7651;1488,3964;1234,6718;
632,000;85,542593;1016,7939;1575,426;1127,5766;1011,4835;
630,000;93,572905;770,01731;1222,2248;1000,0065;875,11488;
628,000;85,464679;676,59179;1094,3541;908,89658;795,18904;
626,000;85,626055;619,73045;1045,8194;866,10394;789,20253;
624,000;87,97257;589,07918;1093,1336;921,11787;837,03462;
622,000;76,117621;686,79467;1223,3336;1029,4276;898,11934;
620,000;93,864908;870,848;1717,3208;1368,6764;1071,0719;
618,000;86,024884;1180,0868;2162,193;1671,8271;1275,6285;
616,000;97,081387;1259,7882;1962,3574;1452,1174;1135,0351;
614,000;78,371016;957,86655;1414,7831;1178,494;969,34997;
612,000;98,395038;779,08196;1202,8756;972,53798;933,1405;
610,000;82,251262;781,07634;1099,2972;901,98792;873,63556;
608,000;87,862756;775,58488;1067,038;909,36588;850,46188;
606,000;85,26758;848,95432;1031,9398;856,95231;809,36027;
604,000;101,609;939,48158;1114,1058;867,35239;804,78677;
602,000;85,456137;1020,3826;1133,6052;868,265;868,86687;
600,000;81,702622;986,19283;1137,4315;900,39433;843,22806;
598,000;97,563805;973,43265;1157,0929;898,79564;831,17647;
596,000;110,09276;991,14146;1097,892;881,12997;850,5657;
594,000;85,382249;973,95759;1130,5587;878,17092;833,94689;
592,000;91,447387;934,43941;1136,3346;884,99038;814,75914;
590,000;104,39235;878,64875;1102,0432;881,30225;796,43872;
588,000;84,554655;818,81015;1028,927;866,42911;851,34101;
586,000;71,921535;723,95459;1018,0516;901,06638;832,61353;
584,000;99,370174;627,5039;1039,7319;854,29178;834,40806;
582,000;81,264017;597,66907;1023,1998;882,76573;777,45824;
580,000;86,051522;551,08609;973,29228;895,74284;800,36333;
578,000;111,75145;517,20436;1008,7305;850,77283;825,67143;
576,000;84,605987;543,81296;967,5918;864,30754;811,79061;
574,000;87,213168;505,69592;1007,334;866,68684;810,97867;
572,000;90,770893;543,41172;997,78281;860,28163;800,28713;
570,000;86,858898;524,75101;1003,0312;870,99867;825,37413;
568,000;106,2579;522,01585;997,18409;844,0587;852,76047;
566,000;100,65925;569,60287;991,35802;899,56559;805,3015;
564,000;98,896575;570,72953;999,00552;869,02099;832,16496;
562,000;94,030269;550,9811;1006,3428;852,06164;829,20343;
560,000;104,48435;583,98162;1002,9362;871,84853;781,23029;
558,000;93,437568;588,80669;973,37105;899,90193;781,64964;
556,000;84,889412;608,60774;979,73077;843,79608;791,86341;
554,000;79,83671;616,13184;1009,5613;866,71232;812,69372;
552,000;94,903434;614,7655;1002,0302;835,21577;799,14972;
550,000;88,919364;543,51487;947,2754;813,84303;800,04527;
548,000;95,275629;481,26067;960,18183;837,45802;788,42915;
546,000;97,055199;487,90352;916,63904;838,69667;784,34924;
544,000;98,436345;451,36907;894,00014;806,60154;795,37026;
542,000;106,56657;460,00014;869,19976;820,86066;800,78948;
540,000;82,761538;455,13316;853,82653;779,35673;787,31019;
538,000;99,090035;459,4181;879,45377;760,47021;767,0328;
536,000;96,435334;441,19016;845,28996;748,30882;722,76196;
534,000;106,80893;412,59018;821,79117;763,15182;753,3439;
532,000;99,871996;439,64265;832,21876;729,06706;764,19215;
530,000;121,71152;421,7579;784,16475;766,88997;719,79481;
528,000;84,348797;466,31651;795,34187;740,01539;770,64468;
526,000;97,847336;463,55754;843,46232;761,9146;741,49444;
524,000;94,942088;454,95267;833,36529;771,53185;755,77566;
522,000;114,11653;476,18875;816,94227;765,31551;774,28922;
520,000;102,05301;471,83984;834,78607;800,26127;754,45911;
518,000;114,34322;494,92382;830,96283;797,14997;747,13941;
516,000;109,48891;498,81145;852,53594;819,35633;771,62116;
514,000;120,13953;514,32475;898,46016;794,53178;763,04114;
512,000;109,74571;514,64895;872,21591;784,1942;804,22699;
510,000;121,49663;513,5156;890,94562;796,22428;791,47771;
508,000;122,56672;546,30944;934,6706;796,201;805,18736;
506,000;118,39338;534,15696;938,85638;828,71751;828,46925;
504,000;128,88906;564,35523;926,67545;829,94703;837,24923;
502,000;124,92962;568,56539;943,14226;826,56243;828,18755;
500,000;132,26975;581,68257;934,83505;855,26949;840,58304;
498,000;131,73831;575,86475;962,27729;868,42269;846,78202;
496,000;139,13999;596,80687;990,52856;876,86264;852,74438;
494,000;131,83385;592,33966;1005,8758;884,40815;865,45236;
492,000;129,25425;618,94567;1020,4523;893,86751;857,39116;
490,000;151,06276;630,33922;1033,5857;898,41091;897,04047;
488,000;142,27854;669,14802;1025,6562;911,6847;897,55683;
486,000;161,59806;633,63352;1035,7597;901,5375;885,68579;
484,000;140,67362;655,53226;1072,5549;934,53832;905,35666;
482,000;125,6197;672,71593;1095,7262;945,72975;859,84152;
480,000;151,81063;664,18194;1075,8083;953,38267;892,09021;
478,000;155,45828;680,55674;1118,7054;949,32453;917,27659;
476,000;147,30968;684,52004;1120,4726;967,64494;919,17583;
474,000;144,57776;696,50192;1147,4605;965,80311;874,7605;
472,000;142,08989;683,87722;1126,776;981,86907;922,64318;
470,000;134,61575;687,55292;1142,6257;1013,2325;917,22064;
468,000;151,75027;712,47633;1118,2087;963,43257;929,2329;
466,000;159,06375;706,27631;1120,4469;995,78441;944,61497;
464,000;152,85985;707,95493;1148,4009;992,11564;944,89907;
462,000;134,35396;740,04902;1152,1645;1003,3298;904,7081;
460,000;144,52069;775,14965;1144,8522;949,77279;908,50268;
458,000;137,4402;784,2094;1140,7913;942,8759;924,05698;
456,000;150,47834;832,33148;1113,9537;985,96907;955,59124;
454,000;160,31278;865,5014;1113,3568;990,09055;915,56877;
452,000;139,4561;867,59196;1125,6971;940,07963;917,16559;
450,000;141,27539;953,65574;1126,6669;961,93083;928,00561;
448,000;142,57418;957,67017;1125,7021;985,22432;941,89939;
446,000;155,06365;966,85712;1140,3056;971,16192;912,59601;
444,000;141,74518;967,63541;1159,0088;970,41895;910,24438;
442,000;135,57633;1004,4097;1142,7877;1012,1813;930,049;
440,000;145,14855;1028,6952;1173,9584;991,37251;938,58945;
438,000;150,36588;965,19419;1189,0513;954,24169;959,37954;
436,000;158,60928;1018,0904;1179,4167;986,549;967,29253;
434,000;138,00093;998,93184;1156,8235;973,16982;942,53795;
432,000;155,23849;944,13882;1142,3527;955,40459;939,31465;
430,000;146,25868;911,92226;1157,8708;985,41868;935,377;
428,000;133,09965;858,26401;1117,2922;955,40617;938,70527;
426,000;131,60743;815,05691;1102,6867;941,52781;901,83796;
424,000;153,86305;812,2701;1110,8606;980,8481;903,65563;
422,000;151,54613;776,97375;1111,3705;967,21287;919,44709;
420,000;145,31487;797,40045;1133,0023;940,70516;886,41827;
418,000;144,03366;757,79662;1149,5231;959,48216;930,77676;
416,000;146,94656;777,69669;1158,9104;970,34618;932,42855;
414,000;139,17503;799,13322;1158,1454;998,73338;910,59988;
412,000;138,47887;773,95933;1197,6694;993,83694;917,00385;
410,000;148,79662;748,65653;1145,0563;977,57901;929,01184;
408,000;140,83345;760,24992;1151,2181;954,28349;932,28659;
406,000;131,09125;793,91215;1159,8185;979,63219;903,03623;
404,000;133,94337;842,1818;1200,6094;1030,0145;929,90563;
402,000;158,26123;875,4447;1239,3571;1053,1489;966,10369;
400,000;140,75517;890,50238;1306,5284;1018,1372;958,02259;
398,000;129,5902;945,64856;1360,6467;1093,0703;1007,0142;
396,000;135,13478;1027,9048;1442,4687;1092,931;1014,6001;
394,000;138,1858;1083,4063;1468,6398;1139,0118;1040,8221;
392,000;152,70042;1135,0336;1492,3102;1173,5064;1064,7074;
390,000;142,00384;1160,9331;1495,7007;1147,8505;1046,187;
388,000;125,57845;1134,5115;1427,8302;1113,4199;1026,4533;
386,000;134,38266;1119,2533;1365,7494;1069,0974;1008,5958;
384,000;144,56825;1142,4121;1341,0535;1113,6162;988,22631;
382,000;130,8124;1132,3427;1248,1792;1021,9622;982,23361;
380,000;133,98904;1175,6559;1256,9881;1032,1683;974,0802;
378,000;136,82915;1164,8944;1297,5881;1015,2176;961,43602;
376,000;139,02062;1129,7028;1291,3857;1004,9783;1003,1016;
374,000;135,67102;1130,6209;1269,249;1026,1817;985,03264;
372,000;153,057;1084,9648;1299,2522;1027,7086;985,16851;
370,000;152,44231;1047,2625;1288,4983;1052,3287;1008,2271;
368,000;151,96754;1051,0227;1315,3503;1043,2689;1034,7512;
366,000;156,58342;1040,2387;1315,524;1034,124;984,07643;
364,000;156,96417;1022,4294;1347,1597;1041,1267;1018,0974;
362,000;156,22439;989,40159;1319,6813;1102,4135;1024,2139;
360,000;133,13422;1005,3257;1350,267;1121,3049;1059,1966;
358,000;157,55931;986,25817;1410,4775;1085,6999;1052,3497;
356,000;150,03783;974,46015;1368,7177;1128,3932;1055,6171;
354,000;164,88561;984,02234;1452,0923;1132,7057;1074,4733;
352,000;158,26831;978,26975;1502,6131;1160,371;1085,9873;
350,000;154,63967;992,95045;1439,1319;1217,8968;1101,0228;
348,000;157,58563;1003,8381;1511,7843;1187,9798;1119,378;
346,000;149,26902;976,61735;1506,7384;1192,008;1146,2365;
344,000;156,16193;998,62319;1530,6565;1239,8685;1168,1537;
342,000;142,47612;993,37691;1544,6165;1236,134;1149,9618;
340,000;176,51049;991,87146;1544,0931;1266,0581;1157,5631;
338,000;153,49061;994,99857;1571,8469;1224,4435;1194,6264;
336,000;167,91296;1064,3777;1598,59;1239,8249;1210,5217;
334,000;166,25177;1016,9047;1585,6025;1293,6775;1211,8571;
332,000;167,36785;1035,1472;1596,51;1277,1568;1198,5625;
330,000;179,27808;1006,8114;1588,4211;1281,0726;1210,4587;
328,000;163,00265;1033,1788;1602,3264;1312,0846;1185,5267;
326,000;184,63836;1007,8733;1627,1863;1324,0523;1228,8616;
324,000;166,41438;1014,7511;1596,2229;1289,369;1191,4699;
322,000;159,62971;1009,2808;1624,2723;1343,6445;1215,9971;
320,000;167,80217;1020,6904;1613,1529;1337,8082;1250,5014;
318,000;168,01221;981,23258;1598,1322;1328,8098;1278,0611;
316,000;168,07455;993,14427;1628,8055;1324,6177;1248,1899;
314,000;155,70299;996,79304;1642,5745;1313,2514;1248,6416;
312,000;161,40213;992,85169;1650,5573;1326,6184;1257,1432;
310,000;170,38226;1007,5416;1682,0672;1352,5942;1254,1555;
308,000;176,86384;1020,0739;1626,6909;1358,4371;1279,2826;
306,000;160,66187;1026,5248;1676,6787;1349,0649;1275,4649;
304,000;167,03309;1035,3939;1694,326;1378,3449;1294,1222;
302,000;183,56656;1035,9914;1713,2969;1397,6589;1303,4427;
300,000;170,49709;1039,4863;1715,9334;1411,6732;1321,6202;
298,000;163,08394;1101,4306;1738,286;1422,8955;1354,8901;
296,000;157,82496;1082,8695;1773,2868;1440,9324;1357,8647;
294,000;174,78361;1047,0617;1831,9832;1461,9341;1378,2182;
292,000;160,79102;1133,1906;1812,427;1461,7588;1366,6326;
290,000;165,26663;1130,5167;1904,2263;1494,3719;1394,8264;
288,000;175,81113;1152,4645;1892,5471;1527,4445;1427,2124;
286,000;187,15216;1181,6929;1931,6334;1503,0278;1442,6778;
284,000;175,43685;1188,5034;2010,9806;1563,18;1443,2942;
282,000;178,26824;1267,3825;2048,9727;1607,6304;1422,806;
280,000;169,71951;1274,657;2010,6755;1598,5276;1452,1706;
278,000;189,43373;1322,2349;2046,0862;1617,263;1527,9922;
276,000;173,37021;1311,6571;2089,2491;1661,3537;1526,1056;
274,000;181,21267;1355,537;2176,6035;1670,7193;1586,3964;
272,000;168,71028;1356,4943;2186,106;1685,6371;1582,4884;
270,000;171,45885;1382,9905;2192,759;1716,7248;1546,5317;
268,000;178,4448;1451,2669;2284,046;1740,6513;1568,4864;
266,000;185,15592;1489,9864;2313,8239;1696,0435;1534,613;
264,000;166,03521;1513,7102;2294,8711;1700,8633;1565,911;
262,000;171,30647;1539,5901;2346,3625;1766,2894;1630,494;
260,000;181,66075;1605,3364;2331,2592;1790,7114;1596,4746;
258,000;183,88307;1661,674;2409,4692;1754,5988;1571,4753;
256,000;172,35437;1752,4651;2489,1205;1807,5612;1587,6093;
254,000;149,99199;1811,058;2509,5096;1815,9121;1634,4061;
252,000;145,86586;1851,4703;2490,3898;1811,6134;1615,0508;
250,000;151,7141;1997,0935;2519,8601;1856,2083;1672,9311;
248,000;159,09904;2117,933;2644,521;1933,8452;1715,0798;
246,000;176,43569;2226,758;2748,2583;1977,783;1689,7837;
244,000;170,13614;2379,0303;2812,8774;1973,8992;1713,1611;
242,000;152,33883;2450,4805;2841,3296;1989,6458;1710,4387;
240,000;151,72844;2443,8006;2887,8619;2018,5784;1706,0635;
238,000;167,39359;2398,4262;2889,1128;2023,9207;1664,4581;
236,000;145,73476;2295,074;2908,0342;2098,4582;1708,2472;
234,000;156,6816;2124,4718;2879,2629;2071,3616;1701,9382;
232,000;136,63038;1986,8254;2910,3118;2061,36;1670,6675;
230,000;130,55224;1963,6878;2882,4196;2052,1317;1647,3542;
228,000;112,78088;1864,1046;2835,5008;2028,491;1637,5502;
226,000;112,91482;1859,9775;2821,8521;2024,401;1627,4698;
224,000;108,14004;1811,5926;2863,7086;1981,6212;1624,6382;
222,000;121,04621;1744,525;2759,0833;1971,266;1548,4546;
220,000;134,81668;1716,8834;2747,196;1962,5209;1536,014;
218,000;103,65618;1697,6764;2688,9615;1950,1857;1512,9557;
216,000;125,79496;1711,8836;2633,007;1870,5849;1529,2679;
214,000;125,4605;1724,8284;2553,8077;1819,6108;1486,1539;
212,000;116,55234;1670,6106;2557,7152;1853,9209;1506,2036;
210,000;105,76471;1669,0227;2538,6801;1765,6023;1457,7109;
208,000;112,88444;1581,6994;2479,3285;1705,4808;1404,9185;
206,000;115,417;1544,4602;2481,4894;1700,0854;1373,4451;
204,000;99,592624;1509,3767;2386,2969;1664,1393;1395,0631;
202,000;128,77313;1462,8378;2373,7954;1604,5889;1343,2563;
200,000;93,6424;1400,3797;2300,8944;1595,3922;1359,406;
