Raman shift [1/cm];Intensity;intensity;intensity;intensity;intensity;
3278,000;454,50722;264,09086;334,37866;905,27246;624,3615;
3276,000;67,670889;675,6362;1126,8309;472,26796;530,88251;
3274,000;54,702639;460,74008;556,11592;738,23364;569,50617;
3272,000;-8,431104;66,818369;496,29908;766,47217;335,63133;
3270,000;735,22927;268,55566;149,03409;291,73729;479,83098;
3268,000;309,5374;540,72954;432,45704;647,95492;351,33678;
3266,000;537,15444;-266,39421;1233,8532;469,8981;110,26103;
3264,000;863,08943;485,13011;588,9568;-59,620852;221,93067;
3262,000;285,18668;68,462939;469,58825;242,54735;523,12693;
3260,000;409,90049;390,068;112,06856;171,28158;899,11796;
3258,000;499,47216;304,61382;61,278284;170,38743;85,861464;
3256,000;358,90399;219,0113;176,03381;125,04761;187,17722;
3254,000;655,41629;264,3001;215,31988;254,41745;-122,78169;
3252,000;462,13028;-40,195497;531,14781;235,97523;918,53128;
3250,000;260,53046;482,15888;329,52314;93,089592;28,893699;
3248,000;572,62071;694,57683;386,78736;864,90156;248,66406;
3246,000;293,95917;261,23912;80,34189;512,62772;216,17843;
3244,000;555,70621;604,14983;308,05544;-16,405622;167,04158;
3242,000;211,05604;816,83878;513,93883;384,83957;2,4037334;
3240,000;313,06037;-135,66861;255,4227;291,00975;-2,9358348;
3238,000;469,43819;-165,90486;770,55929;335,50329;179,04277;
3236,000;267,01545;302,6713;554,50403;86,007559;872,87845;
3234,000;345,01994;-87,743264;28,41458;-152,56503;358,12046;
3232,000;51,095796;85,586242;259,03096;59,379304;177,54434;
3230,000;242,43727;156,42613;201,13602;449,71313;410,80258;
3228,000;96,929685;66,613058;591,1063;374,1772;364,0863;
3226,000;420,54834;444,33669;491,54685;734,69908;653,52814;
3224,000;334,70171;441,79856;-28,916371;533,57685;-146,22712;
3222,000;940,88902;314,51104;-201,68964;132,03741;238,62572;
3220,000;515,70626;112,89847;444,69693;-86,198252;75,611948;
3218,000;622,96668;-130,56937;-103,04006;235,08665;450,11157;
3216,000;567,90367;146,3543;750,51443;635,75728;115,9319;
3214,000;304,57178;229,28687;-10,796827;405,70809;326,17468;
3212,000;184,70602;165,03406;435,49005;-74,30463;258,14646;
3210,000;-1,1800106;393,47542;799,12984;546,78289;230,2082;
3208,000;259,56877;305,75247;77,453332;70,373525;196,12366;
3206,000;311,90093;324,31622;411,40532;710,35877;123,48158;
3204,000;805,83347;743,10685;467,53588;193,88586;1,3498547;
3202,000;409,58172;174,49812;498,66777;-158,66019;179,25214;
3200,000;32,137239;462,90352;-58,583378;115,27978;343,89029;
3198,000;664,18534;-138,51558;462,84458;-237,11778;376,51851;
3196,000;366,159;487,24285;101,30076;371,7769;711,89478;
3194,000;434,14658;-106,84392;446,48018;39,885334;89,968002;
3192,000;29,934881;276,11437;320,28452;-250,59089;-202,17631;
3190,000;-62,929799;37,83331;499,80377;75,21499;-57,940796;
3188,000;111,41901;24,886052;554,41838;241,50818;93,456547;
3186,000;4,4522807;172,7831;288,8452;643,86658;195,80469;
3184,000;46,829187;687,52476;69,739018;552,23755;-29,36262;
3182,000;-25,904633;64,433234;-267,3605;-24,905778;5,2022309;
3180,000;46,762157;370,50418;306,99389;576,55992;52,800686;
3178,000;132,66787;869,89098;-73,104659;-108,39404;342,24595;
3176,000;-168,20085;-248,3664;48,289422;-107,52193;295,3438;
3174,000;70,056248;437,45959;478,53671;-185,25025;75,130244;
3172,000;311,45545;531,39742;246,14862;530,49069;684,85361;
3170,000;-238,10825;158,39678;511,28313;473,78513;103,34227;
3168,000;512,17593;-500,71857;277,31392;641,81058;1021,9938;
3166,000;110,56856;120,71813;-87,251898;21,495713;-156,27885;
3164,000;288,83447;243,02065;430,80649;-126,29562;390,44664;
3162,000;201,4489;121,35365;-55,598037;604,46708;116,3004;
3160,000;-38,674122;807,36547;580,48643;706,93739;354,74748;
3158,000;500,56391;412,9071;-244,46355;668,09001;578,04816;
3156,000;676,3087;450,45669;250,26063;634,98523;515,7115;
3154,000;179,43051;-288,01979;385,91062;74,279422;298,68806;
3152,000;600,17304;135,47908;-228,17152;271,82303;399,28082;
3150,000;225,05449;512,92058;515,61218;-192,62023;33,97705;
3148,000;198,71494;227,56694;242,82013;-52,93458;1,0097327;
3146,000;77,945501;223,65618;429,66421;258,80269;9,1150414;
3144,000;91,051383;564,93173;184,241;592,75129;90,718274;
3142,000;63,736908;119,34351;-50,917475;292,62737;-102,3329;
3140,000;210,6666;271,07788;-183,24885;283,30408;489,8862;
3138,000;304,60809;21,295115;281,51897;168,13585;172,65971;
3136,000;227,17762;118,9343;114,57614;6,7254843;-102,61673;
3134,000;202,88368;244,57463;301,10358;-126,92909;503,6935;
3132,000;193,91729;-177,421;-429,16469;509,74411;239,59618;
3130,000;-94,945983;242,89503;46,881946;229,57166;693,46933;
3128,000;-192,12553;153,91849;227,24666;230,18946;71,748256;
3126,000;1,7736792;26,90593;116,04351;-293,34613;87,387065;
3124,000;250,80401;295,80637;36,107442;376,87417;132,67642;
3122,000;318,02084;110,91352;-27,098889;-148,89699;164,23714;
3120,000;-294,21876;266,80557;452,25054;146,76313;147,90038;
3118,000;263,99554;182,78925;374,00593;112,93696;176,34859;
3116,000;375,56163;580,61263;203,26811;9,8325185;395,3954;
3114,000;346,39755;394,58902;229,97729;240,90716;283,6549;
3112,000;58,315007;778,23555;-6,244959;255,24122;-54,381159;
3110,000;258,22438;842,66431;208,5507;319,39283;186,8067;
3108,000;24,568252;1049,7086;60,044955;226,0152;136,42654;
3106,000;-136,42775;1172,0458;76,016792;323,59283;107,96349;
3104,000;109,11395;1120,1365;348,77651;227,26572;365,96201;
3102,000;-107,25393;917,73838;282,23496;189,19348;449,36789;
3100,000;109,47716;1247,4317;257,247;363,63652;563,18683;
3098,000;130,87677;918,15105;274,19821;432,03021;483,28539;
3096,000;179,87755;1106,9239;506,06078;754,07443;403,06623;
3094,000;44,877791;1512,2817;366,20435;618,87163;243,20414;
3092,000;46,504486;1349,0485;775,75902;807,32536;562,50935;
3090,000;192,90537;1370,2389;469,06449;737,36364;779,73102;
3088,000;117,13779;1850,351;871,06316;1135,8828;1071,967;
3086,000;157,24805;1689,5289;845,4295;829,59196;1163,3728;
3084,000;93,06484;2083,4632;1383,4604;1140,231;1158,8221;
3082,000;-97,115826;2645,4282;1501,8906;1452,6249;1593,0091;
3080,000;-61,843136;3144,7519;1632,2798;1711,5383;2256,3768;
3078,000;66,906819;3624,4464;2073,684;2279,5521;2348,5659;
3076,000;111,63281;3983,0383;2551,7512;2352,6366;2630,2947;
3074,000;66,940203;4433,9572;2703,0981;2824,1579;3253,0952;
3072,000;306,41335;5305,9198;3126,0675;3086,8016;3437,566;
3070,000;347,84776;5612,7463;3264,0616;3270,8634;3933,8254;
3068,000;115,7837;5897,5947;3449,6536;3850,204;3721,3092;
3066,000;238,35985;6523,0275;3588,1633;3349,5785;4076,6255;
3064,000;136,56175;6659,2204;3355,4759;3492,1778;4069,6248;
3062,000;103,89735;6217,0872;3309,7617;3406,1421;4129,4212;
3060,000;153,38105;6070,5527;3738,4358;3459,0444;3880,2952;
3058,000;114,11199;5362,403;3205,4248;3348,3208;3522,1202;
3056,000;90,667017;4966,6639;2992,5069;2985,1789;3254,2306;
3054,000;82,086405;4402,5445;2757,366;2690,4442;3181,3116;
3052,000;205,6011;3791,4773;2417,2859;2639,4231;2936,6158;
3050,000;82,540701;3307,29;2554,7831;2030,2901;2537,9403;
3048,000;218,06133;2678,9539;1739,0826;1927,1755;2223,939;
3046,000;118,13635;2504,5598;1793,8164;1695,859;2286,0978;
3044,000;391,17557;2429,9783;1399,6456;1457,1679;1791,9978;
3042,000;203,20845;2199,0977;1500,0045;1477,3741;1475,4626;
3040,000;181,91664;1765,086;1374,0554;1260,8665;1596,9781;
3038,000;140,48502;1535,1529;1366,5755;1100,1828;1450,5119;
3036,000;104,65881;1866,0778;1114,5839;1159,0823;1481,0336;
3034,000;162,13312;1404,4662;824,1996;1151,0221;1256,7378;
3032,000;7,3165662;1263,0715;771,82379;766,98614;1080,0724;
3030,000;25,675651;1107,8311;960,01819;853,92165;961,05605;
3028,000;81,778014;1506,2063;855,08478;789,26618;862,26472;
3026,000;280,92572;1351,9611;828,20254;650,41328;759,30808;
3024,000;167,45122;1157,7549;650,07375;537,58876;710,20863;
3022,000;123,70641;1454,0315;653,67057;748,76513;922,46316;
3020,000;155,55253;1826,2066;486,50727;791,19586;942,20733;
3018,000;36,609255;1957,5521;713,7762;693,68842;875,94736;
3016,000;-21,797705;2371,7042;791,02921;1010,738;784,63025;
3014,000;15,519979;2922,5746;853,74845;721,54768;981,11322;
3012,000;22,247912;3439,5325;943,93415;969,25451;1041,599;
3010,000;77,590507;3660,3411;730,14654;1029,9316;1194,9218;
3008,000;86,281986;3544,6233;854,47698;986,1141;1298,4822;
3006,000;147,93115;3384,2211;1209,8713;1081,5947;1298,424;
3004,000;205,6762;2935,717;1102,289;1131,2737;1418,0457;
3002,000;47,035901;2985,867;1085,7142;1371,5367;1514,156;
3000,000;35,119184;2928,0196;1118,8171;1194,9739;1569,7834;
2998,000;189,75623;2900,9024;1305,068;1414,7931;1382,2071;
2996,000;-53,267188;2832,4974;1495,4452;1436,5744;1434,539;
2994,000;44,558014;2743,8651;1312,3389;1468,7829;1385,9086;
2992,000;264,63284;2791,6552;1531,472;1451,3983;1804,5326;
2990,000;15,40513;2460,4079;1420,4495;1369,2112;1828,6564;
2988,000;5,8966446;2627,011;1540,9509;1498,5893;1743,0004;
2986,000;-134,23373;2740,9576;1752,0154;1688,1179;1765,1748;
2984,000;43,596465;2944,4793;1656,3992;1669,4634;2082,1811;
2982,000;96,14647;2972,5922;1913,5594;1838,741;1991,3697;
2980,000;220,02143;3334,204;2055,4788;2004,5036;2427,5557;
2978,000;29,283574;3041,2072;2088,2749;2113,7409;2538,3805;
2976,000;100,75485;2948,2443;2169,2528;2121,1273;2549,9369;
2974,000;84,760609;3117,543;2336,8607;2356,9621;2397,0444;
2972,000;70,766912;3103,3087;2143,7763;2586,2905;2344,2739;
2970,000;78,027813;3221,7091;2190,6005;2316,9756;2478,969;
2968,000;120,18114;3476,0296;2360,3141;2414,8793;2418,1026;
2966,000;109,08585;3241,7088;2420,0817;2408,7914;2752,039;
2964,000;163,54811;3672,7667;2186,1321;2337,7304;2802,5531;
2962,000;32,299543;3622,8938;2583,0938;2313,8612;2939,5024;
2960,000;69,15105;3027,7194;2349,1323;2477,2296;2994,0119;
2958,000;130,87948;3202,5595;2702,1792;2750,2923;3141,0595;
2956,000;36,054049;3615,7319;2714,2854;2563,5238;2729,0211;
2954,000;82,017575;3346,3404;2534,3417;2645,4792;2947,1265;
2952,000;98,205671;3201,7106;2994,547;2859,2302;3278,6778;
2950,000;13,164044;3230,2564;2758,6223;2916,8424;3284,5205;
2948,000;116,07524;3085,913;3031,9061;2799,4888;3432,8018;
2946,000;98,908443;3054,8784;2986,3556;2987,5357;3226,6161;
2944,000;170,16264;3646,2196;3060,7425;2989,1216;3466,2391;
2942,000;160,4672;3288,8993;2944,8058;3093,3323;3261,6259;
2940,000;4,5996074;3437,8128;3166,1823;3204,0381;3382,3421;
2938,000;9,9918306;3653,1281;2852,5746;2946,7616;3351,3207;
2936,000;134,88536;3958,2536;2831,6727;3113,5422;3336,2252;
2934,000;133,07675;4176,1272;2890,4382;2997,639;3376,5185;
2932,000;68,072375;4980,3858;2994,642;2998,101;3409,7344;
2930,000;80,779569;5016,3098;2753,8612;3179,4258;3381,8986;
2928,000;38,236831;5271,7013;2835,7439;3118,5682;3443,822;
2926,000;40,350877;4661,4259;2937,2047;2903,4359;3558,4631;
2924,000;175,55154;4604,2882;2961,0719;3005,4369;3401,1323;
2922,000;16,941056;3721,4916;2763,8367;3055,1666;3249,2705;
2920,000;156,50829;3498,9757;2804,8994;2846,3028;3450,5051;
2918,000;145,24059;3296,1079;2877,6062;2699,1519;3252,1702;
2916,000;32,919818;3157,1732;2891,6022;2636,6632;3029,6554;
2914,000;48,211344;2898,5735;2660,2877;2634,7963;3125,0277;
2912,000;-4,0913574;3294,1813;2710,4041;2716,5848;2944,2011;
2910,000;-46,310605;3105,94;2605,7815;2626,7548;2987,2466;
2908,000;54,842836;2842,5083;2474,5613;2530,9665;2899,4791;
2906,000;58,983426;2905,5784;2439,2767;2380,2728;2885,4353;
2904,000;115,43494;2459,6749;2243,7004;2317,9907;2730,0991;
2902,000;112,16454;2465,925;2243,9622;2240,1678;2490,8187;
2900,000;127,62729;2376,9745;2001,1373;2168,5886;2237,8661;
2898,000;62,779756;2512,6046;1978,1743;1927,3326;2280,0466;
2896,000;177,57054;2605,815;1924,3261;2059,549;2126,59;
2894,000;62,10574;2366,359;2069,1906;1946,1973;2143,3615;
2892,000;74,978213;2507,6819;1865,0521;1839,1176;2205,6672;
2890,000;61,837281;2608,7688;1850,2998;1813,7265;2245,5044;
2888,000;-15,404651;2290,4873;1582,0398;1722,3833;1832,4293;
2886,000;8,9093572;2268,0384;1703,9799;1543,784;1990,0132;
2884,000;159,44918;2152,5003;1729,9845;1614,8411;2008,7295;
2882,000;102,02128;2095,3836;1752,145;1807,4279;2121,8151;
2880,000;156,40039;2182,5658;1765,1206;1646,986;2120,5054;
2878,000;147,15653;2036,3095;1534,1115;1795,8986;1926,4566;
2876,000;179,64756;2182,7985;1552,4503;1773,0988;1756,1509;
2874,000;67,593769;1962,3658;1577,7942;1578,0913;1919,1081;
2872,000;-62,136018;1955,0558;1539,6742;1534,7757;1857,0644;
2870,000;119,23477;2189,4074;1540,485;1564,1791;1784,5128;
2868,000;156,91494;1940,6832;1454,9136;1392,773;1480,5462;
2866,000;13,015818;1600,2392;1280,3209;1301,9044;1463,9953;
2864,000;-51,265404;1250,439;962,38507;1094,8827;1252,2066;
2862,000;47,69856;1204,4374;918,11769;862,43411;932,43274;
2860,000;49,63523;1038,5062;684,87176;688,27164;871,28784;
2858,000;88,150162;688,54159;815,32126;675,67266;736,75219;
2856,000;45,448427;775,69134;483,86551;562,94147;688,4052;
2854,000;72,108941;840,39329;479,90848;590,97954;585,02682;
2852,000;176,01833;644,10041;514,91159;551,2992;567,01144;
2850,000;-47,716255;477,69301;288,23284;453,38543;511,97137;
2848,000;-2,2075177;472,14977;453,26322;449,89369;377,82048;
2846,000;51,44842;474,66964;358,96135;354,72826;426,05128;
2844,000;58,477203;251,69908;281,37558;228,13124;289,2439;
2842,000;1,1304849;353,85939;344,12576;246,30514;310,70426;
2840,000;58,552772;279,63044;242,81392;309,37994;292,65214;
2838,000;83,917512;256,306;277,13775;309,41308;268,01773;
2836,000;-44,159964;181,87586;239,38652;239,49033;247,20814;
2834,000;45,749706;289,96121;229,81531;236,64511;215,29397;
2832,000;150,83023;265,89088;293,68086;168,95453;198,73406;
2830,000;74,86749;199,66681;106,77981;34,32861;136,76947;
2828,000;107,01097;182,7578;156,06572;119,57146;71,798754;
2826,000;-46,761558;189,27116;145,81828;148,84846;140,02151;
2824,000;132,07035;139,77649;66,919761;75,903894;164,65988;
2822,000;78,164065;85,824007;171,98166;103,98839;53,35855;
2820,000;95,038136;93,016417;8,9180161;101,9304;67,273253;
2818,000;119,70368;126,67049;149,99259;159,24435;137,3736;
2816,000;72,808653;219,05833;150,94861;30,003998;169,20878;
2814,000;-34,936835;132,52554;199,09594;23,176611;12,062342;
2812,000;-8,3811873;22,96753;228,46417;-49,474302;41,282937;
2810,000;46,932461;155,12821;164,35838;43,68554;116,4893;
2808,000;48,048186;134,37018;30,223449;115,18446;73,196397;
2806,000;116,22293;160,07615;54,746246;-20,46072;164,14223;
2804,000;189,35219;91,107929;103,43488;37,265237;145,71694;
2802,000;29,698754;191,92839;94,614094;40,022094;166,88264;
2800,000;58,270779;187,08388;64,574802;120,54065;63,198645;
2798,000;15,560616;29,329841;76,329608;43,627401;103,4659;
2796,000;-0,26046856;87,830325;96,180209;194,59136;33,788449;
2794,000;102,32629;157,56339;147,95276;176,67271;104,02084;
2792,000;30,024052;126,39942;111,19882;164,92964;292,74803;
2790,000;67,058048;243,63335;32,200852;117,75297;181,33042;
2788,000;99,369323;235,82739;102,25587;65,215084;35,541579;
2786,000;79,481048;242,29539;137,55547;41,424793;72,010109;
2784,000;92,610887;243,51328;118,46646;5,083864;180,46072;
2782,000;168,19945;159,05784;201,79279;96,059818;213,91863;
2780,000;54,53125;171,07954;9,7308309;241,73593;32,531685;
2778,000;68,411033;246,21305;144,26774;97,296553;190,97518;
2776,000;124,96752;162,00344;-25,798567;106,91127;158,00451;
2774,000;80,678801;236,22814;195,86752;23,884726;86,928534;
2772,000;103,98662;187,15597;240,7622;149,71775;127,7659;
2770,000;68,377787;222,2635;202,18113;-15,241176;44,930453;
2768,000;137,74388;269,85462;215,76089;191,07992;243,78057;
2766,000;96,51061;272,3243;214,98067;250,37696;236,36855;
2764,000;56,121581;244,76774;157,6974;238,93226;172,5537;
2762,000;38,078019;232,44731;245,56749;161,97096;235,36891;
2760,000;82,290194;337,21697;132,37563;167,31623;173,44652;
2758,000;-8,2582073;177,09665;230,60386;174,1751;196,29631;
2756,000;-27,786653;273,17456;193,92626;170,18658;104,57962;
2754,000;70,805701;273,89777;121,56493;155,22811;34,535637;
2752,000;30,134084;195,75001;283,0629;163,08315;116,28496;
2750,000;2,0395488;302,5981;67,797543;119,3201;153,06846;
2748,000;-50,113705;193,84174;203,3832;109,82728;83,164464;
2746,000;75,135958;229,05316;183,09977;42,667566;44,39672;
2744,000;49,717785;256,76439;111,48297;-16,0852;132,79165;
2742,000;-6,4738508;256,24947;72,040006;73,094773;39,135981;
2740,000;35,71188;304,93854;69,687488;115,05326;35,785406;
2738,000;-75,171555;248,70393;125,96194;144,00991;194,55963;
2736,000;57,118516;77,285687;69,974661;74,035724;139,03601;
2734,000;-11,843436;159,57262;219,46604;80,741713;260,57442;
2732,000;62,939967;171,11368;163,90744;127,1629;223,90468;
2730,000;129,91613;284,55556;97,816112;134,62865;149,76168;
2728,000;90,775472;61,28948;78,721102;121,90332;197,7772;
2726,000;114,30175;49,230086;88,111844;64,176833;119,51168;
2724,000;96,942374;59,456618;53,088119;149,26702;156,84444;
2722,000;187,32343;105,24819;27,903592;207,05583;42,423958;
2720,000;110,01166;120,02068;158,3238;209,85829;121,92905;
2718,000;55,322922;88,465839;109,30554;119,2032;114,2307;
2716,000;75,154949;66,267453;190,95838;130,5941;85,400461;
2714,000;39,153993;66,979001;127,1105;111,87917;243,25996;
2712,000;100,52353;220,66058;182,01444;51,916748;212,0459;
2710,000;107,85716;117,63013;110,58825;55,934303;105,70093;
2708,000;65,80581;111,3667;77,329652;121,86372;115,31033;
2706,000;76,224538;-43,540291;200,8185;112,76692;167,41805;
2704,000;64,308703;35,184273;108,44425;28,290566;134,51758;
2702,000;26,103421;98,569375;128,6154;140,1008;-85,401857;
2700,000;77,137432;109,95854;49,247501;153,59775;50,388637;
2698,000;115,30148;-91,941449;-10,822124;54,33673;-26,843613;
2696,000;10,162007;121,77332;63,172651;39,029586;48,623523;
2694,000;103,19037;116,28359;34,108691;-13,957718;143,98083;
2692,000;26,705476;-29,62749;126,91418;128,2391;118,98991;
2690,000;30,543292;10,247055;20,860916;36,889769;80,66361;
2688,000;58,597053;82,660721;77,667102;66,623773;48,138622;
2686,000;44,35924;1,9066677;88,086721;55,841672;-33,367798;
2684,000;2,7587007;18,874586;-32,707574;48,352438;-37,727646;
2682,000;113,86894;26,963313;27,203602;89,931934;117,32081;
2680,000;80,310986;66,612453;45,184535;84,233253;6,6360305;
2678,000;3,5194467;76,779061;16,357149;44,25849;-22,32196;
2676,000;77,471925;57,022196;-57,195265;5,976439;53,04574;
2674,000;26,477643;19,144357;77,154962;25,567075;38,88557;
2672,000;89,187702;8,7002291;98,102345;11,190808;83,533772;
2670,000;75,681529;1,2464142;82,12779;4,3591433;6,7633935;
2668,000;98,172132;0,76298446;68,439491;34,05212;4,1564419;
2666,000;166,38604;-21,975329;-23,296129;12,164003;45,049484;
2664,000;95,148215;12,005461;18,400402;-15,126248;26,613858;
2662,000;106,06365;16,981645;22,244974;3,0806638;26,472466;
2660,000;61,857028;41,536756;12,662048;101,61206;9,1565952;
2658,000;109,82822;4,9991795;31,160424;-4,5662871;-5,63836;
2656,000;15,066863;2,7743686;89,137786;25,027179;64,043289;
2654,000;61,922437;83,642671;56,15408;-20,291061;44,542927;
2652,000;58,210273;56,490901;78,557573;27,61711;47,177945;
2650,000;34,574348;93,260735;29,470984;95,384252;57,406145;
2648,000;71,981401;85,79845;31,260598;57,14448;27,418922;
2646,000;-4,1255719;49,612199;49,968481;-32,688707;87,863796;
2644,000;19,506341;92,824929;-45,319807;-22,245227;17,580272;
2642,000;23,803616;69,780013;67,905592;41,023483;32,871771;
2640,000;83,138527;37,576852;78,478624;51,663658;3,81904;
2638,000;56,37597;54,272587;83,842385;31,752216;-64,310043;
2636,000;32,747403;54,154907;125,78739;50,182008;56,802671;
2634,000;87,654299;35,209864;63,78623;73,306805;-7,1690404;
2632,000;43,749361;71,56829;3,3560143;68,664655;12,898822;
2630,000;7,7392171;77,27483;51,650854;87,618268;22,807606;
2628,000;26,700777;38,525756;12,781001;69,191365;31,745895;
2626,000;26,372493;42,873837;88,288911;-20,575522;56,29656;
2624,000;93,810851;75,720951;32,367404;-13,415934;82,092495;
2622,000;77,177992;114,23077;50,739565;-18,86668;54,123406;
2620,000;60,740079;28,956451;69,548857;33,176279;70,236583;
2618,000;7,8019724;104,25047;53,038684;24,312333;112,93835;
2616,000;44,905198;47,273002;118,66493;3,5965863;76,082157;
2614,000;52,047247;37,989781;49,369168;104,42651;69,844518;
2612,000;19,105292;26,814568;9,9168211;79,906317;98,420933;
2610,000;52,310057;68,523948;14,680657;40,922407;47,477774;
2608,000;15,834798;116,02918;59,127347;101,10091;115,95916;
2606,000;52,742752;-6,2216536;71,210156;58,88041;78,911048;
2604,000;62,281398;56,419041;90,71159;-2,8899641;83,378107;
2602,000;-35,714444;140,11095;37,436226;95,482646;40,815924;
2600,000;61,824209;79,099054;67,543136;59,785883;39,73252;
2598,000;19,215937;98,506782;70,638165;12,242155;61,865587;
2596,000;69,015092;120,65115;56,466087;36,532293;49,983978;
2594,000;51,005513;154,73483;106,9458;78,177501;26,366903;
2592,000;7,3521975;101,76583;72,621413;84,04199;59,647228;
2590,000;54,215612;118,39354;101,7249;112,31528;69,187646;
2588,000;22,875224;132,65814;49,444688;139,04338;129,68037;
2586,000;84,254686;108,29248;143,63501;198,04136;66,100242;
2584,000;76,242494;79,860815;118,67915;68,165776;78,500615;
2582,000;76,193035;38,689592;83,663691;56,476913;54,992063;
2580,000;-7,6360465;43,496611;95,085095;47,729623;80,377459;
2578,000;15,550744;184,62967;103,04157;130,36154;55,904297;
2576,000;71,754308;103,43975;93,206767;43,653535;93,292675;
2574,000;29,193134;121,88851;109,12285;55,474344;131,82872;
2572,000;52,446423;131,09548;69,568149;7,1413559;103,59155;
2570,000;36,016114;145,04719;15,737466;56,484085;48,868491;
2568,000;73,230711;192,33949;30,029441;58,901534;60,373612;
2566,000;70,315689;169,7955;12,017055;55,108346;66,649126;
2564,000;68,844647;120,83365;110,35293;61,374365;109,5365;
2562,000;85,363048;159,94117;56,554759;13,125296;44,571997;
2560,000;43,855241;90,338943;19,530408;35,442468;54,917206;
2558,000;67,643707;98,111444;59,142556;46,008026;22,70556;
2556,000;30,207626;102,69572;115,45947;92,43445;57,329732;
2554,000;58,374071;118,5944;66,617216;125,86246;18,830187;
2552,000;47,557431;113,90618;121,18726;24,609369;100,14455;
2550,000;51,008159;145,96479;88,797647;73,539263;74,921585;
2548,000;61,37953;129,40304;66,435813;67,90768;73,373571;
2546,000;74,222232;107,43916;98,756058;4,0189357;95,893078;
2544,000;9,2461418;94,686937;86,361736;44,430644;53,848079;
2542,000;19,358676;48,26435;82,810186;35,208233;51,724998;
2540,000;57,740182;98,919451;66,647826;97,045697;96,683733;
2538,000;36,557144;72,082038;30,390326;61,600372;79,575545;
2536,000;16,138548;67,783943;108,15723;50,39854;65,698464;
2534,000;32,017284;112,62704;89,492734;9,5041965;103,65994;
2532,000;8,2160186;125,34516;16,016053;49,957543;94,922348;
2530,000;2,6572299;138,13152;103,78774;58,272481;75,186352;
2528,000;89,088813;117,55759;92,375291;90,704388;60,010813;
2526,000;35,829345;122,94795;24,472835;94,881921;81,529074;
2524,000;42,899803;125,62178;22,381283;78,430642;108,76498;
2522,000;39,730645;129,78732;44,905752;22,518333;54,821814;
2520,000;52,488933;84,012123;88,330668;66,351301;50,05597;
2518,000;27,392417;113,15246;39,992776;64,829838;66,538271;
2516,000;76,446778;50,414426;20,882643;69,734267;74,159895;
2514,000;38,493046;88,579589;55,377867;51,439941;102,36849;
2512,000;68,610816;104,83053;26,478583;31,333584;31,75599;
2510,000;21,256988;62,107981;35,896644;39,162674;-24,416923;
2508,000;17,6414;112,30145;62,120995;15,600491;27,63934;
2506,000;34,143457;61,969257;-4,2087262;79,796226;29,59176;
2504,000;49,829027;94,128621;33,870302;86,136588;102,17858;
2502,000;29,181499;126,74519;90,095224;109,50505;33,995857;
2500,000;49,146237;119,22635;87,751881;132,80309;94,401161;
2498,000;45,077829;121,04418;100,93004;13,898016;82,541346;
2496,000;16,17448;115,32958;41,062387;101,44184;80,452804;
2494,000;80,366059;132,53905;75,234036;47,2868;100,59914;
2492,000;1,763297;151,75643;25,757645;49,343431;68,360575;
2490,000;-19,216643;62,346011;22,28017;87,641584;92,928698;
2488,000;-19,908362;78,880757;67,57954;61,694543;52,879601;
2486,000;11,389638;84,694204;8,1713454;62,756191;90,071842;
2484,000;25,53198;33,727175;18,775864;110,14398;44,046008;
2482,000;27,320668;155,58693;92,168085;53,884637;84,341004;
2480,000;37,003357;152,87502;29,642614;43,884803;81,884557;
2478,000;5,7621322;140,1573;74,671937;3,3485991;94,012552;
2476,000;-7,8983948;109,88976;76,391198;102,98549;98,601491;
2474,000;-22,262037;118,90446;87,470695;99,961413;135,81525;
2472,000;55,791665;138,76378;42,112836;78,870857;104,50183;
2470,000;59,492082;138,20997;95,845535;110,66739;77,051958;
2468,000;32,908081;73,74337;38,753495;94,976693;110,6204;
2466,000;54,561441;130,62354;63,631062;64,81255;78,015636;
2464,000;58,323741;111,55849;-0,66368388;76,303365;43,480589;
2462,000;47,537636;87,998603;51,156972;49,025572;48,792305;
2460,000;54,267697;30,45807;76,665966;84,099861;32,795918;
2458,000;40,234871;114,0233;69,762537;26,629932;98,131118;
2456,000;43,565765;101,71595;34,932985;18,008335;62,546714;
2454,000;31,483245;132,77038;36,934121;70,217323;84,586827;
2452,000;78,163334;118,58966;27,071018;95,091314;122,75465;
2450,000;49,154422;125,57844;56,925864;24,076318;22,236649;
2448,000;68,53141;80,650976;116,25227;76,918202;32,708006;
2446,000;22,491312;83,036637;66,28796;83,968209;43,062846;
2444,000;31,690082;62,160238;31,977444;91,003581;122,59742;
2442,000;28,027114;82,891055;53,551592;71,929218;93,619199;
2440,000;33,487645;60,573251;74,114754;37,750499;65,669111;
2438,000;37,288404;81,760399;88,005905;49,965942;47,829435;
2436,000;54,757954;124,74835;-16,723256;64,775703;50,255441;
2434,000;32,005751;61,237355;73,746778;94,682507;65,222926;
2432,000;86,21061;101,02555;26,270324;55,663914;33,912701;
2430,000;22,187185;91,442645;84,268902;73,990224;67,437235;
2428,000;74,943551;64,281231;85,25391;29,173279;53,839116;
2426,000;74,302555;83,561203;101,80136;100,12959;35,16921;
2424,000;75,327172;90,309777;-0,87817524;44,049353;63,467945;
2422,000;30,753515;73,319958;5,5328045;79,136874;45,493944;
2420,000;52,992086;3,8990762;54,532204;44,337119;98,231933;
2418,000;44,165746;88,17869;35,472537;33,359263;78,147868;
2416,000;-0,91658824;116,22645;63,300748;57,132181;78,457862;
2414,000;47,341815;67,167274;48,534466;55,326183;84,795927;
2412,000;27,070216;136,57504;57,20261;67,307021;68,86931;
2410,000;8,751226;49,103323;63,53474;44,289963;5,6654476;
2408,000;3,1052485;54,644788;31,799941;-23,395553;18,967503;
2406,000;25,876355;61,760649;49,362638;53,483398;59,536432;
2404,000;37,976518;13,083762;13,860206;42,014986;15,698607;
2402,000;29,820167;45,805301;80,079422;78,028328;31,13151;
2400,000;29,450433;35,578107;28,162857;60,182122;21,309951;
2398,000;82,545029;66,868581;69,557617;48,925157;43,929077;
2396,000;42,317219;46,141837;21,343486;24,637728;55,980972;
2394,000;44,69869;53,526612;47,948521;74,079026;-4,7976733;
2392,000;19,005976;79,898226;52,709402;56,005574;50,280445;
2390,000;54,818459;24,869958;-14,432941;60,050953;36,587334;
2388,000;20,036471;117,49773;48,997901;17,72086;44,261683;
2386,000;39,375003;80,975806;30,509919;67,073067;59,217738;
2384,000;32,44073;69,364896;39,830836;44,225182;16,332437;
2382,000;21,996382;62,664838;82,720908;33,101213;80,28336;
2380,000;8,9053334;67,389263;74,207723;66,11966;127,70236;
2378,000;28,148936;34,824208;53,893548;35,915713;153,81775;
2376,000;43,410149;82,279932;-0,25936217;98,453537;68,770552;
2374,000;26,02462;75,906307;94,175024;84,489622;64,98795;
2372,000;23,799685;84,473377;78,792765;78,094186;98,901688;
2370,000;21,289476;130,58379;35,288277;50,498404;15,008419;
2368,000;39,003086;99,513496;70,267168;41,160054;72,644687;
2366,000;42,556509;58,873241;26,201471;85,405188;115,12192;
2364,000;73,165032;99,678401;38,237211;59,630584;76,321665;
2362,000;49,709525;62,483273;19,373923;42,884001;84,623933;
2360,000;57,279042;72,377595;47,57134;69,372664;44,851489;
2358,000;27,369921;12,594251;65,526831;84,042284;63,008405;
2356,000;41,992394;46,828168;68,744233;55,018132;42,913524;
2354,000;0,32954804;57,474683;32,274741;64,689546;37,085545;
2352,000;-17,331072;45,657735;79,963048;42,321426;42,777778;
2350,000;38,268463;-1,6679233;47,744722;39,572789;51,523859;
2348,000;75,824677;15,041906;-16,391761;48,418118;44,343027;
2346,000;40,991193;95,912492;76,852339;-23,499031;65,110323;
2344,000;24,231902;87,153427;18,811098;33,001954;80,853608;
2342,000;43,008633;50,440681;29,251482;1,9155322;51,497499;
2340,000;-11,671561;53,955693;28,004006;37,870527;42,531482;
2338,000;-18,729843;33,132535;49,523814;37,084917;86,531528;
2336,000;43,803432;23,323118;83,407553;50,155032;47,18583;
2334,000;24,193966;8,2905905;33,00637;-21,87839;78,42745;
2332,000;39,733177;50,54822;71,550287;40,185424;81,640504;
2330,000;45,439145;-15,245999;16,10892;27,177055;76,071818;
2328,000;77,260624;17,484515;76,428401;-23,558723;43,924355;
2326,000;51,231302;74,911879;52,907295;37,374466;36,129387;
2324,000;36,531106;87,826847;45,89054;56,539573;20,931601;
2322,000;25,375749;47,810607;17,040822;64,783665;9,5129038;
2320,000;39,362817;35,229221;19,88897;18,843254;18,692827;
2318,000;13,566369;41,438224;88,585582;-20,072318;1,7732139;
2316,000;48,118551;61,657924;58,185868;5,8384873;-30,885787;
2314,000;-0,99520718;36,227457;43,551823;16,307707;20,845213;
2312,000;17,709384;66,630477;25,507056;35,727916;14,054138;
2310,000;13,233976;30,422802;31,409238;33,244237;11,125201;
2308,000;-17,27864;23,86706;45,103146;8,8941045;44,365706;
2306,000;11,727774;75,604717;5,3918775;6,0280554;25,221055;
2304,000;33,074099;12,413612;40,352614;20,216723;-0,86270784;
2302,000;42,292322;-11,58494;77,543816;-8,0298723;-4,3881217;
2300,000;54,420011;69,153174;29,267078;-27,551487;20,842045;
2298,000;20,230255;-21,786837;72,642354;25,824067;31,872357;
2296,000;-0,79299185;30,425107;74,475839;40,701781;-29,860592;
2294,000;26,624062;21,873496;2,6117102;88,205559;74,627278;
2292,000;54,044247;-4,4317801;41,137769;36,286383;48,229476;
2290,000;51,730262;70,282445;-5,8012033;3,7604521;-30,778908;
2288,000;59,757768;-0,38747245;13,298667;33,958703;32,203585;
2286,000;37,257572;30,958854;59,939746;-6,6601622;6,2449356;
2284,000;45,328921;-6,6426996;-0,17221474;37,140557;69,414089;
2282,000;40,417437;17,44249;15,83184;65,255674;7,0185426;
2280,000;69,584973;-41,811995;16,185682;20,509967;62,69126;
2278,000;56,548015;34,226318;-8,3097732;-15,011992;-1,3353026;
2276,000;74,76404;-1,9896888;2,5986353;-31,36555;7,9109247;
2274,000;56,797001;45,870856;-3,6554163;19,015832;29,373773;
2272,000;72,434583;11,15627;-7,0254325;47,295637;43,679348;
2270,000;30,654072;70,240235;20,631234;41,750747;39,12953;
2268,000;15,991136;57,793256;49,634936;20,103357;37,983084;
2266,000;43,519957;14,290323;7,0135467;53,595823;40,680638;
2264,000;47,595981;37,077705;16,615796;5,2143806;58,858164;
2262,000;53,629404;24,075747;-5,4526542;45,899924;31,207894;
2260,000;38,881733;57,000408;43,150524;40,9659;-12,101658;
2258,000;45,401115;19,6742;28,195168;29,321105;47,496642;
2256,000;59,606065;50,033227;67,739704;17,167124;30,746459;
2254,000;7,8328976;24,441462;10,743515;52,024175;27,606451;
2252,000;38,579166;7,0421854;34,156309;53,547868;53,472364;
2250,000;-4,0871897;-6,5915623;14,602218;-12,360873;-3,5931628;
2248,000;27,820924;54,799807;36,880713;68,423302;82,160538;
2246,000;11,426186;-1,1961546;56,009916;29,32611;55,068464;
2244,000;21,406672;16,241166;8,4069243;33,266289;50,272713;
2242,000;-3,7364123;73,484846;47,958628;51,978777;45,904261;
2240,000;29,420339;49,588084;32,660156;41,777511;33,766814;
2238,000;9,2332696;18,221696;35,765747;26,839901;26,957792;
2236,000;-7,9696082;20,102637;29,554266;-7,5977887;20,652907;
2234,000;27,266208;31,128518;-1,313711;22,990501;40,185022;
2232,000;19,684833;21,156118;41,544064;40,005625;27,253866;
2230,000;8,1078494;64,625798;40,353941;37,038906;13,63565;
2228,000;14,855637;2,6220355;44,666534;30,639946;9,9117619;
2226,000;65,422488;28,279314;13,924049;56,405327;56,829317;
2224,000;-25,841074;21,37629;30,382634;51,135476;27,413767;
2222,000;27,721307;28,726667;55,722775;12,740019;44,048675;
2220,000;26,579778;38,66894;63,234032;10,490199;50,208826;
2218,000;12,913902;18,859998;37,600618;33,584478;23,327963;
2216,000;-37,11376;-6,6471679;-10,768953;16,81936;52,275142;
2214,000;30,670578;21,612063;13,630467;0,27059123;-4,1080343;
2212,000;9,0154135;41,585367;24,613379;37,613121;39,646524;
2210,000;13,563871;8,1337685;20,277015;38,206768;40,988649;
2208,000;-16,376019;48,865698;31,388253;-4,3694683;57,903734;
2206,000;-4,9830681;31,323861;29,266743;12,740014;38,613123;
2204,000;59,750575;-18,315964;24,616114;16,236811;57,536382;
2202,000;28,538454;28,967628;15,659538;49,470855;33,96614;
2200,000;22,547317;11,76959;52,666823;16,168409;20,314384;
2198,000;31,922798;4,3111584;54,912448;35,196856;30,657862;
2196,000;45,304446;47,884589;44,766723;58,733178;25,567363;
2194,000;64,858201;2,7618819;40,304474;26,004103;-3,8593298;
2192,000;45,607271;26,572339;16,671667;14,558191;32,885537;
2190,000;37,811201;3,5860149;33,69678;14,936655;29,427462;
2188,000;29,737868;17,896502;39,812131;-5,2805902;67,304506;
2186,000;32,389833;13,588116;39,986167;9,2140243;28,59975;
2184,000;23,465906;25,223016;50,535878;6,6278471;17,402553;
2182,000;5,7307816;58,631309;33,020701;25,284117;40,551604;
2180,000;45,988973;42,223134;17,351109;10,375527;21,47303;
2178,000;20,486495;44,447521;6,9338402;16,942312;-11,837732;
2176,000;23,915285;-0,81074323;9,248586;33,268767;-9,0441631;
2174,000;39,353855;8,1381869;11,079387;33,943335;21,7671;
2172,000;43,476647;13,524637;1,9334219;32,777165;3,205435;
2170,000;49,053972;1,5139383;21,297047;25,521;-4,483475;
2168,000;33,773044;7,5683536;16,577329;22,950706;32,313415;
2166,000;47,829991;19,736285;29,601831;5,3747553;17,234057;
2164,000;28,714919;-10,436419;12,389104;32,948161;19,165492;
2162,000;27,765388;4,8564957;21,14974;21,322108;13,439129;
2160,000;41,168775;-0,46995374;-1,1013958;28,671461;8,4567831;
2158,000;48,892066;36,436457;6,150957;30,984672;-9,5934576;
2156,000;20,361773;24,63508;-5,5205124;-8,6088664;21,297877;
2154,000;22,048385;31,07428;-1,2470317;-2,4803058;48,91575;
2152,000;27,523683;6,5340841;24,624191;20,534485;18,085514;
2150,000;22,099798;26,554996;45,535158;29,530914;4,069711;
2148,000;29,099458;51,514694;45,126135;4,9858845;30,562245;
2146,000;11,980225;38,320819;38,243284;38,76407;26,532458;
2144,000;28,24992;-2,971886;15,223026;23,444226;21,489182;
2142,000;37,421673;5,161938;25,363832;29,628671;32,957882;
2140,000;30,397342;13,828326;19,392995;-3,8527343;46,45893;
2138,000;44,970712;-8,7567886;20,380043;18,79962;39,51814;
2136,000;42,543915;20,258362;22,829483;7,944445;-4,1170482;
2134,000;26,305537;2,2273609;8,6364643;42,742324;53,736195;
2132,000;21,544642;9,1052412;15,020782;20,223806;25,274617;
2130,000;35,158871;6,2844103;31,868715;10,034405;52,30552;
2128,000;9,3388715;-8,6226624;-6,5464195;21,781131;52,248599;
2126,000;46,911072;22,917205;31,287149;5,1401753;1,9231172;
2124,000;35,197151;30,88426;21,089777;12,932777;18,110651;
2122,000;18,255705;5,3064375;-3,8529986;19,402334;42,35545;
2120,000;8,5920679;20,18635;11,873869;25,57738;42,022181;
2118,000;20,057206;14,653914;39,261781;-3,6471574;24,006567;
2116,000;5,1958171;-0,61855138;6,8355063;4,5552042;48,967436;
2114,000;7,631961;61,537438;3,6620109;46,337872;-13,401278;
2112,000;39,702845;35,120469;25,794882;34,0455;40,846694;
2110,000;27,427097;41,072893;43,49075;-6,5340811;46,712355;
2108,000;34,334845;33,004158;47,751196;9,5572315;7,7452765;
2106,000;-5,1773636;29,241369;21,851183;5,2926068;22,383318;
2104,000;13,327436;60,304939;38,135014;20,446909;58,74922;
2102,000;31,652437;9,1753044;35,887958;36,886047;47,283857;
2100,000;28,276461;24,259928;33,29731;26,398242;35,901603;
2098,000;31,396309;63,766162;37,962096;42,21657;73,284464;
2096,000;42,014498;55,59026;31,048398;15,075124;44,872937;
2094,000;32,207049;37,016645;35,016967;32,947475;40,522569;
2092,000;14,858696;65,288993;26,146198;27,476588;29,444293;
2090,000;36,437479;9,5347309;28,529905;63,593351;46,864239;
2088,000;41,771499;61,119003;56,626733;56,162903;49,582836;
2086,000;36,149194;48,733691;28,857303;24,134355;76,686616;
2084,000;44,816748;46,812683;37,730124;17,765918;71,341364;
2082,000;34,492964;48,654488;51,489949;59,038926;73,128907;
2080,000;63,360961;86,54479;57,552889;38,567104;57,306251;
2078,000;54,266613;97,434816;56,174878;42,847976;86,669816;
2076,000;50,217092;82,714061;79,742434;69,431564;82,768252;
2074,000;40,957553;59,778128;34,08707;51,449956;85,330488;
2072,000;41,66186;93,063059;61,34194;55,257961;45,647924;
2070,000;34,110903;69,435438;55,932926;53,006285;54,826222;
2068,000;72,533072;120,64676;43,831719;78,259914;71,103338;
2066,000;42,7632;89,431468;61,640829;87,805981;79,157169;
2064,000;42,450442;78,140836;69,046457;83,959233;104,4619;
2062,000;34,99523;49,390389;88,29951;84,966686;68,812404;
2060,000;43,819376;51,359858;66,683329;100,73892;115,21519;
2058,000;68,619762;116,56715;78,026661;76,838765;80,665604;
2056,000;46,549373;91,203163;80,889505;96,959729;86,724336;
2054,000;42,831136;72,490362;68,313897;118,39292;109,2253;
2052,000;36,352228;105,1634;85,710166;81,720018;110,5074;
2050,000;60,298119;89,859777;96,17926;62,481962;121,80903;
2048,000;53,923814;90,038771;93,936765;56,62688;86,777863;
2046,000;61,894838;77,463748;91,136642;60,453982;115,67839;
2044,000;70,966481;92,421315;65,828255;87,409777;106,38061;
2042,000;48,010379;114,30203;89,892907;129,30838;114,237;
2040,000;52,454514;77,5369;85,220479;83,556891;145,65398;
2038,000;50,885894;109,36991;117,98815;73,42854;97,2914;
2036,000;42,606153;109,52493;94,816269;68,519955;127,66984;
2034,000;60,367499;116,9307;92,923355;111,23993;146,32785;
2032,000;26,332879;135,51574;65,542596;106,18191;136,29313;
2030,000;58,445962;102,36477;109,12946;77,769358;77,654165;
2028,000;87,942255;88,992478;113,99846;101,28785;124,96772;
2026,000;85,793187;132,83044;103,3885;88,729987;135,88789;
2024,000;75,874744;112,99143;110,77928;116,18683;122,6324;
2022,000;76,793657;106,18414;113,01069;115,07099;126,93577;
2020,000;64,172711;109,2478;98,261539;147,05876;122,62773;
2018,000;42,534071;148,61715;114,46924;111,50277;101,10441;
2016,000;78,443799;114,83968;75,816435;151,48523;126,27855;
2014,000;69,326851;120,88373;118,04727;118,14384;131,7527;
2012,000;60,231519;102,3484;94,270677;125,22784;122,11988;
2010,000;60,756625;143,46788;123,49932;90,795743;144,21701;
2008,000;52,494344;101,06025;90,041937;152,88929;140,23516;
2006,000;36,93152;131,09759;106,43112;70,387107;118,20165;
2004,000;71,033589;113,90085;93,083963;116,4535;145,37645;
2002,000;56,920142;156,50516;90,578703;104,48981;183,86482;
2000,000;113,88361;153,39022;111,61871;104,65988;133,19083;
1998,000;86,224829;145,31991;139,7277;90,222265;114,53562;
1996,000;95,667821;123,62677;88,144228;139,62967;100,75751;
1994,000;83,23228;174,60921;139,60144;112,33192;124,05806;
1992,000;69,448961;143,12861;93,134697;107,9185;136,66464;
1990,000;86,406222;160,63862;96,812887;122,35385;140,97345;
1988,000;88,634202;154,61711;101,70982;104,88825;136,98687;
1986,000;74,049782;155,34312;88,246424;111,26984;117,19171;
1984,000;63,370026;150,82775;98,039313;107,28421;119,866;
1982,000;76,530639;129,99706;117,1458;93,700265;101,78406;
1980,000;53,880339;174,65187;99,811779;124,19494;129,09555;
1978,000;59,598843;158,62188;113,73652;136,4854;110,17677;
1976,000;69,0439;160,67848;122,27616;106,06476;97,69022;
1974,000;102,41803;186,18487;118,22722;113,56872;128,96068;
1972,000;77,732662;197,48114;137,30626;117,35471;119,15772;
1970,000;74,721066;172,38241;133,36271;109,69636;133,39265;
1968,000;73,817952;173,68224;132,46632;130,48669;121,57879;
1966,000;83,631286;150,15896;102,45767;119,96734;118,02575;
1964,000;72,20883;145,09876;130,33707;106,65707;147,6487;
1962,000;59,839241;174,76803;122,71531;139,16743;140,47327;
1960,000;99,398122;154,95966;115,21092;103,59001;133,5778;
1958,000;68,62094;137,11475;100,93293;103,20326;155,00581;
1956,000;70,363019;133,33862;115,11785;102,26128;68,198209;
1954,000;83,325112;139,34803;110,25667;106,82956;82,949395;
1952,000;69,98556;143,44882;96,200403;115,41815;93,011828;
1950,000;76,197932;161,52443;110,60782;80,378889;118,57969;
1948,000;92,510116;160,08835;142,78395;96,537419;133,43026;
1946,000;79,794216;158,91836;118,7818;107,58717;109,21691;
1944,000;93,187963;150,30364;120,99239;103,26906;120,81092;
1942,000;90,186607;118,75571;119,75404;71,436805;178,68995;
1940,000;75,907355;115,21931;138,4532;129,33636;100,41041;
1938,000;71,69576;160,94682;153,59517;110,14928;154,7711;
1936,000;89,516336;136,35647;131,81187;124,3087;87,572205;
1934,000;73,549352;184,88543;136,11715;126,46726;121,02008;
1932,000;75,476484;156,18196;102,21185;115,91518;119,2108;
1930,000;93,919575;154,44984;154,6759;77,167281;105,50588;
1928,000;99,562127;130,11519;104,22744;115,97995;115,23911;
1926,000;109,31461;158,13481;97,410408;109,75421;163,9938;
1924,000;80,940972;144,05363;88,540595;120,53805;105,17023;
1922,000;98,009821;132,99218;134,83245;94,635077;133,93224;
1920,000;100,04879;144,89689;144,70488;139,64583;120,00257;
1918,000;77,23136;144,01496;116,46018;119,66179;130,15029;
1916,000;88,082949;182,75163;125,08114;127,16226;114,39731;
1914,000;55,99797;155,32913;113,86157;103,80536;128,78659;
1912,000;85,314964;158,49954;91,454234;126,71632;104,69642;
1910,000;91,738335;152,3512;103,6397;96,473022;141,00963;
1908,000;97,635681;141,59458;98,901726;99,422575;120,98441;
1906,000;80,782398;123,61741;124,41136;113,36194;121,70283;
1904,000;115,03693;145,57959;137,29139;125,96305;113,45081;
1902,000;95,549526;156,81219;132,71255;89,100958;104,81248;
1900,000;105,06337;152,35045;65,30525;130,61306;109,11528;
1898,000;125,34551;151,37989;152,21692;102,50967;106,53915;
1896,000;88,002013;152,49297;76,658196;95,050073;120,59722;
1894,000;75,35698;120,67969;115,64188;139,24706;114,53409;
1892,000;128,00228;75,326222;109,03091;170,60916;84,987858;
1890,000;83,884831;172,42605;151,45515;142,5312;97,409837;
1888,000;74,941598;147,95488;150,32658;136,675;147,93222;
1886,000;88,86885;147,25291;127,63757;119,3044;107,75552;
1884,000;77,916615;156,51802;89,34685;134,38777;94,855868;
1882,000;54,188207;124,77174;109,33168;135,45719;171,47415;
1880,000;69,756119;169,00202;103,96653;130,08632;123,92964;
1878,000;110,29472;142,72264;138,1594;117,03323;159,97335;
1876,000;82,252006;174,12967;124,7011;124,67986;128,256;
1874,000;94,170005;161,95385;118,30459;114,82255;100,03313;
1872,000;89,459832;192,64205;118,4967;160,89676;144,37786;
1870,000;92,907491;193,14642;133,90381;135,76611;177,93297;
1868,000;34,787287;152,99654;171,94843;119,78291;111,45163;
1866,000;105,03668;125,87372;120,87024;147,75885;120,85695;
1864,000;76,705033;130,03816;124,86563;86,096968;123,45923;
1862,000;90,887913;150,94785;94,062575;71,393181;123,60171;
1860,000;77,172706;159,43984;91,583774;111,06562;122,04319;
1858,000;79,925058;169,9231;99,021906;112,55333;101,11571;
1856,000;80,221039;121,13194;123,59763;101,07718;66,311339;
1854,000;65,970835;140,81985;93,138405;93,157075;108,98629;
1852,000;65,203558;148,77656;94,020921;82,761308;125,07264;
1850,000;66,565077;140,54296;129,86498;127,78297;104,65807;
1848,000;77,449554;138,14514;102,19171;105,92553;151,9523;
1846,000;91,541683;134,85164;76,165693;146,54328;108,78839;
1844,000;64,953871;138,7845;99,86632;129,10708;80,926205;
1842,000;63,205406;134,73018;128,14014;95,740556;122,01247;
1840,000;93,504162;174,27349;129,7116;99,683016;119,76058;
1838,000;65,15414;137,92166;141,63896;134,64555;129,51946;
1836,000;84,526622;128,73169;89,331725;124,9095;115,22044;
1834,000;98,36254;131,30852;117,34971;118,21651;145,63685;
1832,000;82,58811;196,62071;129,77865;115,1369;119,63727;
1830,000;82,553082;124,73413;120,8082;96,164354;145,21774;
1828,000;88,228228;181,59343;134,49695;129,14506;100,51385;
1826,000;65,12057;163,55996;144,53542;129,69409;96,587805;
1824,000;66,456193;143,25495;95,805722;125,53746;117,37134;
1822,000;91,696947;169,24963;140,97495;119,47444;144,93452;
1820,000;49,974666;156,45152;123,43661;106,1953;139,12728;
1818,000;72,203248;126,41657;115,23469;134,88747;136,2196;
1816,000;85,656886;148,00314;135,24975;119,19183;153,79543;
1814,000;81,420287;155,31925;130,34294;121,92246;90,698126;
1812,000;87,186516;153,39316;118,25805;132,40074;114,34563;
1810,000;87,419127;135,0403;97,704407;100,80475;152,70747;
1808,000;79,741952;113,3764;118,17514;106,80967;105,67001;
1806,000;76,534029;153,49801;119,19852;118,81094;125,37136;
1804,000;86,793929;171,84766;116,14724;139,22267;88,292939;
1802,000;79,989957;131,36069;103,44601;129,44383;126,80046;
1800,000;51,296437;147,33257;121,49334;145,2551;108,0315;
1798,000;116,90389;118,23681;123,28543;126,05897;103,72079;
1796,000;60,484728;86,02947;89,753706;129,66079;91,001566;
1794,000;72,707455;89,701075;68,598888;73,664272;98,673682;
1792,000;64,158582;99,99494;139,13674;97,646476;123,05194;
1790,000;78,632565;121,55524;86,905043;71,17231;85,202286;
1788,000;82,094997;140,7138;97,977345;117,5022;95,216015;
1786,000;91,258365;139,0672;96,998115;105,75608;100,25244;
1784,000;58,614932;149,8857;103,39586;99,071864;85,647038;
1782,000;73,182946;130,71545;80,27286;115,06909;112,70612;
1780,000;65,75183;110,61813;97,394044;97,499214;118,90741;
1778,000;47,768792;121,97697;110,58733;110,64674;106,64123;
1776,000;66,658407;157,46886;105,2808;107,04523;94,083299;
1774,000;61,262041;184,24883;96,964248;103,12388;127,63123;
1772,000;86,708601;170,54713;119,42844;96,044152;106,19974;
1770,000;64,846583;167,82112;109,79353;107,38361;107,52151;
1768,000;79,129194;189,77463;107,94995;100,31882;114,3746;
1766,000;56,264411;158,12507;99,766369;106,75896;123,67131;
1764,000;64,193351;141,31368;116,65172;109,55473;144,12818;
1762,000;66,761925;176,49131;140,82441;125,93008;130,20323;
1760,000;54,903913;144,02956;93,89447;105,23555;112,879;
1758,000;87,93061;155,21156;105,09429;98,271967;131,43605;
1756,000;68,648418;154,14608;111,21708;120,47027;117,83701;
1754,000;68,893678;158,01548;119,3733;93,870865;146,61947;
1752,000;80,310087;160,46838;119,98768;168,56264;156,22926;
1750,000;87,1045;162,21214;151,23735;146,99237;188,87964;
1748,000;79,291938;157,42186;152,14493;171,38918;196,233;
1746,000;66,447039;195,47392;180,73925;188,00816;204,58766;
1744,000;70,64552;179,8709;192,58231;177,05862;222,85643;
1742,000;44,378012;223,01887;190,50029;248,08277;257,54787;
1740,000;45,362263;274,6651;260,83213;243,51338;246,05636;
1738,000;39,451424;274,05236;266,67709;271,29808;266,09616;
1736,000;65,650278;377,35486;291,99883;299,51712;307,93192;
1734,000;70,345588;423,11331;329,00849;297,21418;349,08714;
1732,000;70,932572;601,28201;320,21269;309,33348;350,03471;
1730,000;79,036238;753,15907;340,45956;345,74154;392,20887;
1728,000;84,082297;954,68463;336,98278;369,33851;423,22772;
1726,000;94,846341;1237,5783;347,30493;383,24123;444,5868;
1724,000;72,712422;1436,7497;370,66465;388,71901;428,63075;
1722,000;68,930413;1681,8259;363,45616;379,05195;423,86044;
1720,000;64,909924;1726,8755;383,91429;351,71668;391,13661;
1718,000;57,2856;1767,9318;327,97471;366,04264;416,62935;
1716,000;71,873046;1687,3538;336,99255;330,9834;376,16153;
1714,000;64,851162;1574,4553;326,40535;330,23067;361,22771;
1712,000;69,305816;1467,1826;308,44651;331,84907;384,23404;
1710,000;74,609945;1427,7115;280,71768;341,19072;329,24393;
1708,000;59,411606;1322,0509;300,54389;312,55591;310,33718;
1706,000;56,114969;1249,4649;291,34563;276,98982;293,11003;
1704,000;81,790924;1176,5592;289,09568;250,28888;288,06521;
1702,000;72,267557;1098,2578;249,83126;277,13147;287,88769;
1700,000;81,173437;1056,597;248,60232;232,98191;251,32669;
1698,000;105,30073;948,77997;253,93114;210,49273;280,28598;
1696,000;91,189067;857,17891;192,44231;202,76605;220,10133;
1694,000;111,26777;795,03383;230,71939;213,75386;234,46723;
1692,000;80,01145;635,22281;178,78836;185,67276;212,43751;
1690,000;62,60473;591,57199;201,13758;208,92105;239,88108;
1688,000;84,287944;540,77329;176,15981;191,76252;266,80982;
1686,000;70,130441;476,67213;184,19547;236,34893;246,77055;
1684,000;61,404826;430,43817;206,72437;210,79223;265,83728;
1682,000;115,3913;384,84651;171,09701;203,20963;243,77025;
1680,000;75,66755;378,67684;173,00724;184,47973;265,56752;
1678,000;71,084273;376,5056;218,24563;177,93147;232,75897;
1676,000;96,908473;366,90779;179,13856;181,7395;234,76991;
1674,000;82,350091;411,74545;170,03893;203,64101;173,52445;
1672,000;100,70816;388,39181;177,44331;203,09639;218,9319;
1670,000;84,972605;392,55675;177,4417;199,97661;172,11748;
1668,000;82,768863;423,4879;153,42609;158,78898;202,68198;
1666,000;92,546351;477,67679;160,51067;204,39408;162,74188;
1664,000;83,283118;504,07069;170,414;168,3567;168,05193;
1662,000;57,775076;512,22989;137,78664;152,94242;164,95169;
1660,000;98,66441;609,27539;189,39611;122,76227;154,67181;
1658,000;89,709662;666,69789;161,57551;160,58284;159,33502;
1656,000;70,062033;760,48877;157,45972;139,54807;161,21292;
1654,000;84,082477;873,54319;147,06766;126,54764;186,73622;
1652,000;81,630165;996,27371;160,21725;148,00232;180,90729;
1650,000;51,641725;1170,606;160,06562;178,91843;161,20052;
1648,000;82,193883;1495,7732;167,11987;156,68653;193,99334;
1646,000;70,435752;1962,8423;159,4147;189,76839;207,23781;
1644,000;84,649408;2695,0714;193,81025;252,88823;251,44269;
1642,000;77,066673;3760,6501;212,43364;238,77896;277,07634;
1640,000;66,796992;4850,4866;225,5283;273,12803;287,61515;
1638,000;94,043543;5724,153;250,20593;312,91786;369,70212;
1636,000;54,358705;6963,8706;278,0803;337,65002;393,42008;
1634,000;89,533553;9821,9396;291,37739;320,7565;373,99607;
1632,000;62,337265;14267,83;321,81229;359,28104;420,36249;
1630,000;61,845416;15338,923;351,22998;391,10601;420,30888;
1628,000;66,919554;11113,659;385,36582;395,12643;446,22151;
1626,000;69,111702;6398,2798;411,88967;455,7981;493,28379;
1624,000;66,688628;4126,2172;465,92084;523,17283;526,81812;
1622,000;80,474935;3316,6877;565,02032;624,01287;648,58444;
1620,000;58,850218;3289,8235;671,90017;762,48567;861,79518;
1618,000;66,017351;3322,4621;951,45786;929,83772;1021,6702;
1616,000;58,325771;3457,0664;1159,4334;1192,218;1352,703;
1614,000;67,43866;3712,4646;1487,0853;1486,1166;1651,5415;
1612,000;70,705078;4209,55;1777,0606;1777,528;2006,6325;
1610,000;57,919169;4660,2388;2042,1662;2071,6212;2331,4245;
1608,000;85,316205;5090,3337;2222,0723;2213,4811;2526,994;
1606,000;60,337813;5603,1144;2381,1628;2438,2729;2739,4501;
1604,000;48,465876;7195,2705;2414,2223;2459,4186;2806,1426;
1602,000;67,39528;9739,3155;2325,7512;2475,7002;2751,2917;
1600,000;65,445139;9880,8813;2024,3236;2152,2546;2455,8199;
1598,000;87,490194;6827,896;1520,4282;1621,474;1914,5885;
1596,000;83,531102;4103,2006;1077,6917;1104,1519;1313,4957;
1594,000;53,506455;2713,8118;795,19034;783,35243;920,81847;
1592,000;49,460043;1937,1232;575,16127;607,86274;754,58766;
1590,000;60,383189;1567,9414;558,19206;556,89186;653,5003;
1588,000;73,632526;1311,284;556,81674;623,60692;697,77987;
1586,000;40,551379;1228,7585;793,9358;763,15944;923,52246;
1584,000;59,377639;1300,6472;971,46985;929,14621;1134,9048;
1582,000;68,064335;1296,6254;984,80647;1009,4684;1148,6124;
1580,000;47,643808;1281,1332;800,33212;798,72998;942,2503;
1578,000;63,802563;1490,8622;599,49386;591,11898;678,36341;
1576,000;82,000218;1818,9866;397,82262;460,7507;522,92071;
1574,000;55,700499;1587,2891;331,49083;309,08206;351,2423;
1572,000;56,217465;1133,9374;245,91435;224,20699;291,60678;
1570,000;50,418832;822,14363;187,32417;200,14905;217,11601;
1568,000;53,940668;603,5117;155,56117;174,56003;156,11612;
1566,000;85,693085;524,60014;146,055;145,03247;106,10186;
1564,000;54,752758;411,89908;130,24328;116,73977;120,77458;
1562,000;64,35791;360,53854;81,652128;124,89153;111,79851;
1560,000;39,034962;348,41264;63,655593;92,841824;78,974769;
1558,000;70,715076;355,00293;33,669387;62,018678;64,49622;
1556,000;91,830004;333,1265;50,193983;64,563995;52,186731;
1554,000;91,224271;343,07939;73,132583;100,74491;79,63994;
1552,000;75,78706;275,40839;42,228967;60,935873;65,371646;
1550,000;73,267615;283,14158;81,902056;43,008913;92,45614;
1548,000;78,794612;244,50599;52,57605;36,983732;59,088279;
1546,000;55,027965;205,66262;45,455849;28,203956;51,443584;
1544,000;79,424386;184,47585;62,975979;64,137518;41,843127;
1542,000;77,780866;172,81334;70,665263;69,476135;114,58559;
1540,000;51,852082;98,882277;101,94373;30,216627;56,936188;
1538,000;46,076142;101,74632;64,821066;12,183348;52,851435;
1536,000;62,251316;84,350925;32,749747;24,824289;14,380558;
1534,000;57,76984;95,655449;10,510989;31,543427;20,370544;
1532,000;47,635712;51,560647;51,305587;57,776981;25,217274;
1530,000;51,386237;13,210448;51,603059;64,921687;32,741801;
1528,000;51,435128;33,256442;67,539363;48,803059;62,532203;
1526,000;65,941353;19,195246;52,200997;63,410267;71,394214;
1524,000;34,953554;44,824642;16,360908;86,605137;50,997735;
1522,000;69,957499;27,474874;2,6643679;35,686356;46,278463;
1520,000;73,141223;28,407223;35,955847;9,1775727;34,123777;
1518,000;74,446778;83,792369;98,140078;-1,9758042;52,255419;
1516,000;60,324694;71,556493;44,042473;20,76365;105,88313;
1514,000;44,307942;127,36689;84,476029;75,621265;75,609988;
1512,000;74,640488;108,00962;100,50633;117,44798;121,29987;
1510,000;81,387201;106,66676;118,61042;93,850873;67,350083;
1508,000;49,404716;65,662433;112,46222;72,688936;102,23072;
1506,000;71,930566;80,775041;41,186678;29,758614;105,09014;
1504,000;62,441049;-18,052462;43,631272;61,768345;54,322688;
1502,000;47,69816;42,810909;50,990662;26,420594;68,253777;
1500,000;50,180348;53,46838;45,318455;39,978041;77,151091;
1498,000;35,591027;131,52415;77,210727;72,399238;97,189338;
1496,000;44,794167;350,90507;84,818469;80,519138;92,54249;
1494,000;56,241434;413,66855;79,958444;89,728884;107,2249;
1492,000;31,947071;211,00603;94,293168;114,41819;93,976265;
1490,000;65,128627;170,14333;88,134178;122,84421;108,06738;
1488,000;78,44819;84,113374;102,49044;101,05341;174,60092;
1486,000;95,367076;110,64878;96,116096;132,46729;156,65071;
1484,000;57,022224;96,016575;151,55474;146,00245;175,84355;
1482,000;40,171225;165,59706;180,06026;212,72336;235,66183;
1480,000;47,317451;222,44024;202,2143;262,80184;313,03809;
1478,000;56,754481;258,0772;301,53136;253,56479;347,40056;
1476,000;64,272452;416,55695;384,07559;333,2133;430,57953;
1474,000;59,421089;492,43659;432,42546;452,38356;506,49359;
1472,000;42,162477;647,72521;519,28122;523,14351;608,258;
1470,000;41,069146;771,56956;599,2051;583,09131;741,2886;
1468,000;69,261673;858,46652;655,7124;695,36567;760,95025;
1466,000;59,198311;973,84933;693,92801;731,90434;859,45736;
1464,000;74,245781;1101,9624;806,81951;858,83014;969,91247;
1462,000;26,906012;1136,1518;910,90791;865,79578;1004,4052;
1460,000;53,262301;1226,0394;946,68355;928,92043;995,52776;
1458,000;59,335162;1149,6333;955,79309;898,20273;1023,2642;
1456,000;79,970421;1084,8762;923,73646;916,86834;1017,5711;
1454,000;39,389453;1151,2963;960,74341;889,99493;1077,4123;
1452,000;45,470069;1202,2503;956,58292;955,9643;1043,1549;
1450,000;78,09679;1238,9332;906,30175;937,90126;1100,109;
1448,000;100,73567;1121,0357;939,43153;948,88411;1100,9226;
1446,000;97,762762;956,7387;908,318;901,01606;1068,0476;
1444,000;73,535668;982,33189;866,5223;919,23683;1023,711;
1442,000;75,781527;919,01841;801,29364;819,45237;915,4565;
1440,000;82,35461;817,67863;644,16761;666,04617;735,62628;
1438,000;62,427465;797,52545;498,77792;512,42669;621,62633;
1436,000;79,298019;752,89659;420,88496;414,57374;492,71468;
1434,000;103,95053;703,17711;370,2992;323,86123;358,77765;
1432,000;113,69027;746,42336;313,94441;208,7803;277,82611;
1430,000;82,541682;690,33146;223,18505;237,59071;253,86882;
1428,000;123,82765;790,15671;163,56707;194,50689;165,09419;
1426,000;109,8775;941,09283;119,23054;164,37542;151,23788;
1424,000;95,719297;1120,6432;102,00898;124,87619;149,56145;
1422,000;100,29833;1352,9916;92,33308;104,18661;88,684845;
1420,000;118,63515;1712,1201;100,98929;131,5372;99,134402;
1418,000;111,12574;2173,231;122,48507;147,1846;145,03831;
1416,000;89,262655;2749,1018;99,389365;118,0779;143,18263;
1414,000;107,57685;3302,237;154,31512;129,72118;176,93556;
1412,000;116,20319;3634,6382;219,20237;172,06161;172,32518;
1410,000;110,76637;3432,3789;175,69345;171,70228;228,44762;
1408,000;123,87452;3104,5355;161,19108;143,95787;159,48105;
1406,000;146,02211;2782,8655;121,30503;148,61694;231,40237;
1404,000;135,43775;2572,7129;135,12767;180,99801;211,43176;
1402,000;193,34508;2283,8862;206,88409;140,39771;207,32664;
1400,000;162,90544;2021,4747;201,73815;167,13401;188,5204;
1398,000;150,84596;1630,6154;129,00093;140,61967;188,60018;
1396,000;195,13758;1266,0156;201,13926;180,90928;187,11215;
1394,000;172,27242;949,26902;150,03212;205,35307;178,6252;
1392,000;166,90936;761,26634;174,98346;165,19287;193,72497;
1390,000;156,20516;632,32359;175,13349;169,90345;256,19039;
1388,000;181,23144;598,88439;186,20283;195,09066;271,55501;
1386,000;154,79059;607,63353;217,64185;229,8011;261,2067;
1384,000;189,96167;626,2695;258,56997;212,18082;277,84165;
1382,000;174,45034;654,93222;209,32097;255,03111;264,05732;
1380,000;154,9633;723,24551;238,47649;267,02705;262,73476;
1378,000;190,92508;692,71252;216,53379;233,30405;272,33926;
1376,000;227,57332;674,4968;200,83081;247,00812;204,61401;
1374,000;213,56998;577,18056;229,74573;219,18634;198,04594;
1372,000;211,50642;451,63764;215,21043;200,61705;231,27371;
1370,000;222,17245;382,66682;200,54635;233,3316;256,47343;
1368,000;204,43019;288,77637;253,34587;196,10748;254,09024;
1366,000;235,0507;245,61079;215,49761;222,8969;214,80741;
1364,000;218,0289;270,21993;245,58963;216,97647;238,68017;
1362,000;226,90673;206,15023;255,42318;201,70185;254,53671;
1360,000;220,22066;180,69339;253,30526;220,93548;233,84577;
1358,000;239,12262;148,06608;194,7067;208,88558;221,15752;
1356,000;227,91453;137,99811;224,15769;188,20904;231,58705;
1354,000;221,68034;132,19704;207,47153;155,67718;190,4217;
1352,000;250,43875;131,74322;190,41204;192,20167;189,19331;
1350,000;241,94752;130,03316;191,82706;184,27256;181,65227;
1348,000;215,29988;129,04256;211,51024;177,88649;171,7696;
1346,000;219,94851;111,19395;199,0839;165,52647;186,62303;
1344,000;220,16455;141,0834;204,76889;201,56108;182,16349;
1342,000;232,72858;193,8578;190,9317;160,92878;207,566;
1340,000;197,94381;215,83364;178,78388;144,98561;190,61616;
1338,000;222,6927;347,34491;174,78575;183,62226;204,93451;
1336,000;234,50639;523,90057;164,12985;164,41185;173,36114;
1334,000;241,87;638,48073;180,50084;160,34414;205,1742;
1332,000;222,56875;617,93849;154,61509;164,963;144,32619;
1330,000;222,32546;555,20565;151,72723;141,63111;178,84197;
1328,000;212,18924;595,12186;174,77258;151,58858;164,66535;
1326,000;214,1261;605,67644;157,69642;159,08597;149,85884;
1324,000;213,88439;825,56663;180,99191;136,90863;191,43217;
1322,000;207,35995;1106,3284;205,87134;138,89725;163,27334;
1320,000;213,74311;1607,0116;200,83322;176,26096;187,71366;
1318,000;209,64457;1925,8464;205,90845;227,59463;209,25262;
1316,000;205,1693;2059,7403;265,33242;205,24144;261,34452;
1314,000;178,65674;1785,9852;328,0657;297,6364;340,21102;
1312,000;177,90818;1516,5709;369,96082;321,63648;374,79167;
1310,000;186,06963;1325,7726;402,4027;384,74465;430,84822;
1308,000;196,74292;1311,4064;363,9873;393,15729;387,33692;
1306,000;185,62839;1457,3825;395,16906;420,60197;384,35298;
1304,000;182,20923;1536,4426;374,37322;400,61664;421,76366;
1302,000;174,04773;1568,419;404,01676;434,21189;491,1827;
1300,000;148,54425;1583,5711;463,42719;408,05686;518,2223;
1298,000;151,46318;1450,6378;461,38151;456,74373;529,91899;
1296,000;154,39821;1377,727;481,71623;457,36926;550,54353;
1294,000;178,24276;1235,8154;486,3653;455,24793;502,82729;
1292,000;153,38804;1093,7047;446,00594;406,17223;490,76004;
1290,000;134,73064;988,83793;384,93871;396,07144;407,79959;
1288,000;156,3087;813,11284;328,76931;359,28973;381,60839;
1286,000;132,05401;744,24102;276,8114;292,16578;340,95694;
1284,000;125,27997;611,2459;248,86409;219,26294;282,70698;
1282,000;112,57058;480,53389;227,02298;204,52712;225,30487;
1280,000;105,1902;443,80347;180,24576;193,08218;208,26961;
1278,000;123,17072;368,91882;159,26505;114,68117;196,09363;
1276,000;116,41968;337,04307;155,81597;160,59977;197,8041;
1274,000;132,25062;332,07314;129,68417;162,70156;199,62898;
1272,000;108,24174;320,19495;173,299;120,55923;227,78484;
1270,000;111,55686;292,64582;183,06693;154,26326;206,82495;
1268,000;114,55847;296,03135;189,72777;183,82927;197,49795;
1266,000;100,56273;338,41916;217,70945;216,97096;249,55866;
1264,000;114,24294;335,93327;229,49387;237,43651;229,8662;
1262,000;76,004907;355,14147;234,53246;243,45389;264,3108;
1260,000;96,518482;404,10003;265,86344;289,24843;302,73679;
1258,000;101,44296;514,08937;339,62609;352,33444;339,99374;
1256,000;77,544033;601,04852;327,76264;376,81543;387,01275;
1254,000;84,680863;737,68344;405,13211;407,27318;463,20955;
1252,000;75,927281;786,26748;464,81352;443,36565;472,92956;
1250,000;80,885582;852,45099;449,57381;458,84218;530,06421;
1248,000;85,209386;818,93655;454,82778;442,30011;525,32152;
1246,000;66,647879;791,45398;482,88377;433,62377;524,77363;
1244,000;75,027434;791,25445;453,8134;416,26844;548,17773;
1242,000;59,625218;759,50661;497,93718;471,10015;527,81489;
1240,000;81,31644;785,61225;507,18195;508,23271;557,86424;
1238,000;60,251916;772,78526;562,10562;530,1887;610,66124;
1236,000;74,730418;882,73778;555,16935;568,32811;664,31283;
1234,000;61,996485;976,08694;625,3258;662,0762;745,08475;
1232,000;64,17322;1090,5376;677,04392;693,39719;811,85361;
1230,000;66,863379;1198,4781;746,22019;729,2412;844,24596;
1228,000;84,448135;1228,0477;776,08804;796,00505;904,67893;
1226,000;69,252087;1166,9837;813,52886;815,77753;950,06185;
1224,000;57,583538;1138,0913;782,10393;804,89204;887,61898;
1222,000;69,361333;1067,2706;792,28344;761,39259;896,39509;
1220,000;60,798393;1032,9488;767,56641;736,2013;855,35588;
1218,000;61,795825;994,57791;705,53278;733,00706;783,58165;
1216,000;62,625512;969,46649;688,42807;664,69222;773,58513;
1214,000;55,85398;936,06726;660,23743;614,73006;744,46186;
1212,000;60,360153;1058,6494;635,04035;598,09938;684,97646;
1210,000;59,685054;1252,9815;588,03528;594,98913;652,13289;
1208,000;72,270087;1745,2594;561,61758;480,18096;633,09925;
1206,000;71,925052;2668,1196;533,67477;481,91038;568,93985;
1204,000;64,80348;3747,3204;569,81202;498,19774;610,73027;
1202,000;72,169171;4291,5591;553,47425;569,93801;638,93206;
1200,000;59,199709;3570,4479;616,5204;545,2185;674,6582;
1198,000;53,908068;2438,3529;689,54328;634,78205;761,16693;
1196,000;59,994046;1583,7377;725,92261;700,63652;788,3154;
1194,000;69,805831;1263,964;819,3609;806,74372;947,11837;
1192,000;61,119593;1348,9715;1014,3046;1005,422;1162,5973;
1190,000;80,959437;1656,0156;1199,8668;1195,8577;1413,0993;
1188,000;59,252912;2219,839;1478,7521;1425,3699;1771,3996;
1186,000;67,565;2712,7245;1675,2586;1680,6716;1932,228;
1184,000;86,393277;3109,6473;1726,9008;1726,8357;2026,3686;
1182,000;57,813661;3375,0827;1638,6864;1617,5157;1832,7901;
1180,000;70,954279;2872,5923;1344,2892;1337,3527;1557,5664;
1178,000;58,628105;1996,0334;969,37386;986,20761;1132,6022;
1176,000;56,695239;1148,7569;620,91263;641,31711;718,13768;
1174,000;76,320922;733,18778;410,14397;401,01776;468,3521;
1172,000;67,5713;526,95213;306,18849;240,2096;301,59587;
1170,000;65,664175;378,80108;187,40813;151,04942;157,78072;
1168,000;80,027598;323,72002;119,00707;100,50022;146,21618;
1166,000;52,628303;299,82358;122,85817;56,589556;149,56369;
1164,000;66,903058;318,69872;69,221572;74,900618;81,111284;
1162,000;69,374362;389,07535;124,94493;71,810718;112,86652;
1160,000;69,32991;639,81932;193,12233;184,68057;220,29437;
1158,000;59,791667;1036,0409;312,14659;271,41287;349,35097;
1156,000;55,727269;1360,5374;418,39057;384,7055;495,78942;
1154,000;58,02686;1116,9571;424,42807;409,25124;486,46331;
1152,000;36,630304;675,32465;321,31352;314,05845;360,52343;
1150,000;55,974757;426,9343;230,7614;177,64546;237,38674;
1148,000;61,830601;354,12576;151,69483;141,43629;213,55147;
1146,000;32,230074;299,96646;170,61515;115,74254;141,25592;
1144,000;55,122056;236,52932;147,68376;114,98139;153,44189;
1142,000;39,826974;165,81977;110,97348;101,81564;131,29653;
1140,000;52,680865;131,49396;97,286231;78,359121;110,88366;
1138,000;41,063699;164,22764;127,88348;86,440528;140,01558;
1136,000;54,346102;176,35704;114,78637;93,089779;122,27579;
1134,000;41,111556;237,37278;140,58026;103,87758;128,47962;
1132,000;56,550429;214,83077;131,22537;106,79574;130,29638;
1130,000;53,551458;260,76338;173,9864;152,7096;155,89946;
1128,000;50,020252;311,62329;208,71188;189,78038;227,76649;
1126,000;45,859904;415,19028;250,73256;250,78678;248,58078;
1124,000;36,085986;548,79984;309,14739;319,90738;402,98112;
1122,000;61,4014;747,65504;482,22634;478,84811;537,00706;
1120,000;54,462994;1049,6971;671,44616;652,12344;762,35262;
1118,000;53,111722;1501,9073;908,59747;917,68968;1059,1379;
1116,000;33,832195;2174,7923;1245,7784;1225,4095;1432,2895;
1114,000;40,481956;2626,5276;1546,3526;1598,6913;1828,1464;
1112,000;29,15918;2679,9161;1680,0585;1688,2183;1910,8201;
1110,000;42,275098;2260,4298;1477,8039;1431,9714;1635,6056;
1108,000;43,438264;1714,0255;1088,2221;1065,4753;1242,9708;
1106,000;55,863685;1263,1267;752,38541;753,47778;887,59872;
1104,000;52,962509;912,96623;559,08019;514,94125;613,18509;
1102,000;44,361502;633,41227;415,67289;338,5;447,03139;
1100,000;31,091279;477,6769;255,46333;242,52375;319,58186;
1098,000;18,103371;359,29449;177,82441;161,55409;223,0534;
1096,000;31,979116;276,2259;140,30394;110,31861;150,93752;
1094,000;29,663333;251,81168;94,2864;86,643343;96,177232;
1092,000;55,698803;243,24728;89,236214;55,363715;109,7963;
1090,000;25,300976;264,20507;99,634977;76,209321;88,384113;
1088,000;31,59425;362,81356;103,45627;88,248879;116,48642;
1086,000;22,179957;384,50661;133,08254;89,359455;150,97351;
1084,000;28,03887;334,76666;106,63308;87,363782;87,933747;
1082,000;25,385982;223,5098;45,444955;41,233086;65,269381;
1080,000;29,549727;129,08735;70,960284;31,630491;82,804073;
1078,000;42,119184;78,687977;10,059047;30,680488;37,477885;
1076,000;28,855251;83,359421;55,5137;-7,7631793;53,236007;
1074,000;30,912665;52,070586;61,46452;31,827836;33,235633;
1072,000;16,576546;50,979085;26,446715;4,5925089;8,4630065;
1070,000;29,37109;67,038193;-32,393799;36,380126;14,515966;
1068,000;48,820911;31,138302;-16,522661;28,479032;-6,1996925;
1066,000;37,928948;41,951562;11,538188;4,0848002;-8,1855449;
1064,000;30,286083;41,136627;10,361648;6,7310604;-9,1868228;
1062,000;50,328655;68,776282;53,029794;51,573915;42,952682;
1060,000;41,349118;96,603348;29,97476;12,534504;66,680356;
1058,000;10,963703;109,09759;92,377405;51,267444;97,193313;
1056,000;20,058404;148,82535;81,172712;96,979829;123,27952;
1054,000;43,018178;231,39554;110,84688;97,928811;158,43911;
1052,000;9,6810296;232,51977;156,98216;166,37403;175,29375;
1050,000;28,299587;226,47458;174,29948;148,20346;232,43304;
1048,000;15,541617;262,67763;226,00842;159,38058;233,78918;
1046,000;25,320199;252,06057;246,058;235,4047;291,20807;
1044,000;18,555409;257,04558;278,64011;251,74096;307,61304;
1042,000;14,180365;282,10539;345,58251;331,52163;398,04128;
1040,000;22,87959;417,3682;456,92818;445,08024;555,36421;
1038,000;29,736041;657,61212;650,7349;651,23176;759,47985;
1036,000;12,475986;1234,8663;944,28226;945,52682;1046,0341;
1034,000;21,160943;1780,2082;1263,571;1187,8918;1376,907;
1032,000;18,679813;1669,1895;1386,3528;1336,9619;1597,1743;
1030,000;21,774644;1265,1183;1290,1798;1241,1516;1410,7094;
1028,000;17,395022;930,4245;924,16764;944,28216;1080,7941;
1026,000;22,762354;859,40578;537,63115;610,04364;687,68908;
1024,000;1,8760397;999,71542;305,49529;288,00374;402,47671;
1022,000;19,683239;1004,6732;138,07157;167,19819;194,53357;
1020,000;-15,345981;959,31363;103,75705;51,244522;103,61033;
1018,000;21,270325;678,35381;78,04569;82,085315;101,64413;
1016,000;26,447507;659,87689;192,28978;98,208349;153,1766;
1014,000;-7,8671021;721,00767;238,02677;239,39881;268,40118;
1012,000;9,5891618;696,80413;308,22551;312,89607;379,12515;
1010,000;19,019766;752,97219;428,779;424,00035;510,31816;
1008,000;4,9359986;932,28072;815,65415;766,22537;939,92668;
1006,000;15,613109;1638,3752;1831,9057;1782,889;2123,6464;
1004,000;1,9847818;3645,6646;3906,3203;3830,4834;4467,3316;
1002,000;14,620165;9208,7538;5598,7666;5614,0182;6437,6844;
1000,000;9,8077514;15690,579;4475,211;4496,1982;5203,8298;
998,000;5,2069512;12555,916;2148,2907;2156,2112;2574,3683;
996,000;11,603574;5139,3717;914,14422;908,92656;1127,1778;
994,000;18,318001;2308,1396;566,36263;530,93102;630,24599;
992,000;0,044166108;1567,4254;389,7529;400,1361;388,79627;
990,000;-5,3900549;1134,6808;279,10218;280,24414;336,85306;
988,000;-3,8981332;1076,5656;190,77174;210,05542;225,49391;
986,000;6,3895555;801,12169;64,529866;68,857364;137,7593;
984,000;2,7242762;481,38028;44,282483;55,181049;55,8831;
982,000;8,5089186;287,64091;22,513418;24,65542;15,054512;
980,000;5,7495016;190,18524;24,324091;9,9693116;13,020115;
978,000;9,716053;141,1858;0,8320399;-4,499597;14,212264;
976,000;-1,7585184;56,495379;-11,163552;8,2201699;22,393907;
974,000;3,6417832;20,859763;13,697441;-39,080155;0,79999216;
972,000;7,9187523;-4,194251;61,413197;44,921041;66,418461;
970,000;3,0238258;0,071835854;23,101929;59,32943;47,791035;
968,000;3,8222388;-25,337755;47,065295;24,944686;64,202241;
966,000;0,69631833;27,604224;37,731901;47,425266;59,848238;
964,000;2,3043955;81,078634;56,191718;59,762958;46,353657;
962,000;11,794222;32,052556;42,950025;41,851006;43,426935;
960,000;-8,9903536;109,66684;63,415985;37,876374;82,375655;
958,000;5,2419698;149,99532;42,696793;68,873761;56,886876;
956,000;6,9782359;231,88331;36,114568;75,000906;78,750273;
954,000;31,353468;199,87346;75,74696;85,361891;98,601594;
952,000;-1,643457;293,12186;90,375976;60,240466;113,85435;
950,000;1,0239793;320,18427;94,790466;117,78198;115,08165;
948,000;10,825789;423,29928;106,95567;121,40499;139,60117;
946,000;3,6803571;408,5523;134,87837;160,12691;150,6323;
944,000;2,9634477;516,92342;191,82425;200,27325;202,61829;
942,000;16,776133;559,04359;173,77524;214,21168;239,45903;
940,000;7,8420052;654,15242;223,82644;277,13522;299,59681;
938,000;-2,1151389;693,29436;239,69738;284,58298;300,44156;
936,000;10,388345;728,5988;318,02807;328,81081;330,40939;
934,000;9,7168562;793,00478;355,24313;341,9014;448,02347;
932,000;-10,271947;821,97997;333,34718;394,85618;395,17789;
930,000;17,838932;846,90086;370,38958;372,42764;412,81563;
928,000;6,4842337;800,63531;312,73232;339,23709;369,92708;
926,000;0,28118788;785,37455;340,4517;321,42401;369,05263;
924,000;3,9899871;795,45559;313,72956;318,92662;359,21634;
922,000;15,399614;785,48511;288,48634;292,60721;330,7785;
920,000;3,4766688;833,70345;279,99612;305,20294;374,85545;
918,000;2,951018;814,59071;313,72725;322,25492;360,82958;
916,000;1,7566358;943,55613;294,40219;318,15646;384,91203;
914,000;7,0925004;970,25711;326,71463;363,72421;384,67056;
912,000;7,6568816;988,81436;344,66976;388,60992;407,33143;
910,000;17,381919;1046,2186;357,28039;320,12841;436,72394;
908,000;-0,21246179;1015,8483;332,1073;287,37949;365,84692;
906,000;-3,5585607;923,45299;282,73605;246,81639;317,60247;
904,000;1,6699279;835,13817;204,21104;250,15668;237,70711;
902,000;6,7746983;856,73192;180,58093;162,71322;184,28198;
900,000;3,6047044;790,64609;136,20983;198,0894;164,07807;
898,000;3,5512067;808,01053;136,77521;168,39585;167,97087;
896,000;1,6990807;812,81957;122,38438;123,34707;176,93524;
894,000;11,644445;795,31318;124,74961;173,28079;131,97402;
892,000;9,8539162;830,0326;158,3348;173,13277;182,96166;
890,000;-4,026254;859,15155;190,02138;188,6051;227,22665;
888,000;21,082702;885,53203;219,98185;232,12581;233,51009;
886,000;-7,5357382;970,15257;226,9524;253,69875;235,76261;
884,000;1,3933911;981,27487;255,4951;235,07246;296,63299;
882,000;-6,4649474;963,39236;267,54978;291,99508;316,12641;
880,000;8,4449939;987,41097;288,29202;346,55738;352,80961;
878,000;12,84863;998,23635;307,18272;311,30686;368,26036;
876,000;3,640311;931,10448;339,52549;328,87015;357,41474;
874,000;5,7933245;864,65722;318,84515;310,83713;375,41104;
872,000;19,554161;846,669;280,80044;321,36066;335,24218;
870,000;9,9962068;750,29883;290,05313;315,90763;362,35006;
868,000;-5,4185623;699,77225;295,24562;311,01015;345,57783;
866,000;4,3436034;633,03539;290,67761;282,16471;338,70922;
864,000;15,100896;619,78545;293,08464;310,46011;308,36787;
862,000;0,71348859;631,51389;294,08768;318,32692;367,97546;
860,000;5,3541163;614,0341;308,85349;336,84149;387,73772;
858,000;-0,88635075;688,96005;321,5699;365,81114;406,16233;
856,000;5,1010058;744,15261;350,36233;386,00652;426,36757;
854,000;15,27488;746,88686;393,31709;414,27441;453,76177;
852,000;3,256791;880,04918;455,11814;461,27788;492,47014;
850,000;10,464883;957,87583;471,44167;521,36896;562,6476;
848,000;8,4856226;1059,6056;540,63518;572,31912;640,49032;
846,000;10,096135;1183,5935;596,96316;657,88205;730,03744;
844,000;6,0362502;1353,7242;713,29456;740,44127;824,40083;
842,000;0,6151497;1455,9637;833,12539;815,44802;896,9425;
840,000;2,3451365;1608,8241;882,05456;898,58803;1022,7003;
838,000;1,2467533;1761,4299;947,19651;999,03981;1124,8938;
836,000;-3,0781031;1911,5479;964,38382;1006,8186;1173,5174;
834,000;3,8714249;2085,7824;1054,3192;1123,8199;1196,5364;
832,000;2,1806405;2163,6799;1056,4699;1087,9173;1229,6378;
830,000;6,9462147;2271,8235;1105,1795;1128,776;1294,8733;
828,000;9,7270037;2372,5553;1092,4533;1182,1082;1286,0861;
826,000;-6,6677366;2454,5813;1134,447;1163,8773;1323,4924;
824,000;18,394049;2592,0114;1232,6631;1241,5077;1436,0067;
822,000;8,2669559;2794,0098;1265,597;1344,5289;1523,5852;
820,000;18,92534;3004,5852;1318,2893;1417,6967;1544,096;
818,000;11,913581;3169,0854;1417,8683;1489,0683;1637,1337;
816,000;11,357922;3297,7463;1438,8851;1592,221;1699,5916;
814,000;-1,8469752;3252,9216;1602,1343;1609,8554;1824,7643;
812,000;20,52306;2948,0572;1607,4768;1617,0553;1921,3575;
810,000;-0,8854684;2588,2055;1579,3092;1647,4176;1869,6296;
808,000;9,560184;2335,2486;1612,1798;1713,8998;1880,1065;
806,000;17,69627;2126,0814;1618,5135;1702,5538;1906,6355;
804,000;11,399082;1963,3509;1632,6954;1692,5869;1893,8031;
802,000;17,24902;1626,1028;1538,0021;1582,04;1781,562;
800,000;-0,73981162;1256,0428;1343,0524;1332,0196;1500,7677;
798,000;8,7739335;891,32276;1113,5401;1113,2734;1231,6334;
796,000;15,652269;635,34651;912,16511;896,81087;1026,1397;
794,000;8,1491909;432,0421;733,5184;725,08572;831,79743;
792,000;9,5125798;222,09039;541,77704;551,22149;633,99086;
790,000;-0,69089707;150,63078;427,25921;415,65027;451,19654;
788,000;11,845959;75,955812;305,86344;276,80482;340,43966;
786,000;5,867734;78,287425;248,2308;238,29614;301,22765;
784,000;-2,2390892;112,30658;206,68226;208,89488;211,92419;
782,000;13,349441;181,57574;173,25071;151,12791;179,15471;
780,000;6,3293109;351,82158;121,17899;141,40774;166,81042;
778,000;7,8529602;681,17972;124,83502;138,21087;146,11695;
776,000;13,450354;1146,4742;117,98476;139,32775;126,34826;
774,000;9,8081001;1734,723;131,81906;136,60101;146,8817;
772,000;20,020081;2663,0507;164,97842;147,49779;182,24507;
770,000;2,276646;3525,4908;189,51856;146,43961;194,19703;
768,000;2,5814264;2920,8786;200,28599;183,8095;207,01857;
766,000;8,564571;1562,5475;220,82326;186,65159;214,0681;
764,000;9,2065288;791,2678;214,49273;232,69795;250,5238;
762,000;13,250343;411,79872;269,11064;260,20353;311,3491;
760,000;1,021515;243,54872;284,25786;300,63417;347,29738;
758,000;4,9186505;179,66822;362,12752;316,78282;389,50894;
756,000;-2,6906298;104,87594;380,27131;356,45322;397,33582;
754,000;18,49626;83,34548;384,66114;370,35918;422,29493;
752,000;16,314555;61,095712;434,86168;410,53554;427,69598;
750,000;4,6887661;70,131941;390,79669;401,25044;427,8375;
748,000;9,242879;13,737468;388,08886;348,27567;415,51058;
746,000;21,060479;-19,65395;333,95738;348,94702;403,04967;
744,000;3,3563764;-30,283114;301,07161;333,92806;386,25652;
742,000;6,808877;0,75916936;357,56788;335,55023;329,29873;
740,000;14,287367;34,925929;346,30007;340,51437;379,26944;
738,000;-4,3569328;116,05947;360,3939;360,13892;431,66868;
736,000;1,4815729;256,86507;433,65637;443,99691;523,61483;
734,000;-4,5262815;476,7567;513,3499;535,61796;587,20259;
732,000;13,672369;551,42994;491,23852;536,71234;564,81616;
730,000;6,3823163;408,6888;402,84953;486,06548;529,98864;
728,000;19,099741;242,77333;314,56937;376,04847;395,82171;
726,000;8,8627908;189,75483;203,42437;251,90277;273,65294;
724,000;11,906784;162,04019;180,88575;212,4812;191,06527;
722,000;16,952306;128,11669;96,088964;81,979314;98,258397;
720,000;17,743251;172,37402;26,189327;49,662966;56,535109;
718,000;21,289801;139,93426;17,510716;26,620987;38,701479;
716,000;21,171185;59,900865;-15,752505;-12,112484;18,182519;
714,000;13,434048;86,517552;-16,532479;-19,98757;-11,737883;
712,000;9,5732802;229,39391;36,41559;37,158216;76,334395;
710,000;5,6146329;471,47193;150,09624;121,0802;146,21016;
708,000;15,71892;540,27268;168,04678;123,35476;163,13233;
706,000;15,770434;279,0754;79,075045;42,007301;54,169112;
704,000;13,784293;140,1531;15,177272;18,006572;3,7178664;
702,000;4,7610673;109,22309;6,0011808;-25,617554;-14,652065;
700,000;7,0116135;106,38191;11,983231;-14,517776;4,6359939;
698,000;14,730644;151,23959;12,517737;12,283443;-2,06407;
696,000;13,88928;181,65303;7,2023794;9,4818735;7,8509699;
694,000;-1,2845161;156,06308;-16,414761;26,887814;14,712766;
692,000;7,8183235;96,08877;0,18431618;6,8395135;-7,6590901;
690,000;10,276792;125,97073;1,3913673;27,184705;-8,1900385;
688,000;2,3538555;127,48957;7,4269724;29,240452;25,865656;
686,000;6,3218167;150,41208;19,08462;11,116776;7,5759432;
684,000;3,9717571;230,32675;43,105913;44,542356;57,645939;
682,000;2,1308294;249,57737;62,427395;79,372556;77,485562;
680,000;10,484781;280,28491;61,767961;64,928452;115,24731;
678,000;5,7197424;265,54065;99,560215;106,28899;110,08079;
676,000;6,4063146;284,18399;99,828436;122,67962;149,07072;
674,000;17,147431;357,00056;146,13865;107,71183;139,27052;
672,000;9,818956;446,99167;147,77799;190,90502;189,07469;
670,000;16,799705;500,903;211,14502;203,35413;242,9011;
668,000;16,404333;585,79132;250,59719;248,1215;325,09483;
666,000;16,642308;557,94984;229,95279;230,38905;259,78393;
664,000;11,509536;469,52036;216,70694;220,62001;282,34114;
662,000;-0,62843812;397,20448;166,48211;187,32226;185,36528;
660,000;12,021876;387,37516;179,91758;177,06773;228,21047;
658,000;19,038012;386,819;144,73827;178,77744;215,02783;
656,000;5,9855091;366,33425;179,2982;188,79985;203,83227;
654,000;19,169778;394,5709;186,8033;217,41197;189,02971;
652,000;9,9217385;412,61893;205,28198;226,84436;227,77354;
650,000;0,4218955;418,53975;205,73461;204,13799;237,59642;
648,000;22,183737;422,22128;221,7003;189,7116;236,31217;
646,000;8,5697145;504,13389;260,35382;249,7793;298,39161;
644,000;9,6580298;604,54003;320,61631;304,82346;357,96303;
642,000;5,6561008;840,84388;456,19707;483,94449;548,71178;
640,000;2,6543695;1335,8097;755,0716;767,82478;952,16067;
638,000;15,441193;2117,1455;1247,4664;1304,5893;1463,655;
636,000;8,7641919;2480,6544;1486,8346;1517,8936;1738,3181;
634,000;27,062783;1856,8446;1072,0547;1100,3585;1272,0812;
632,000;12,825221;1076,6718;583,48514;592,24228;715,07284;
630,000;20,696101;606,74433;377,82717;426,1223;439,41433;
628,000;12,428442;459,66251;272,43986;272,95657;348,9232;
626,000;12,430386;333,96493;231,97149;249,53832;248,92983;
624,000;14,617469;377,24175;206,32691;260,85214;245,77617;
622,000;2,6030867;552,10118;359,12898;363,20643;431,42293;
620,000;20,190942;1054,5714;707,90774;712,70477;871,70472;
618,000;12,191485;1913,7368;1171,975;1174,4426;1352,8233;
616,000;23,088556;1986,8405;976,64223;1002,7096;1197,6658;
614,000;4,2187517;1207,0775;528,49453;572,78265;685,07901;
612,000;24,083341;767,48229;314,42116;393,2207;379,78116;
610,000;7,7801325;641,3947;248,69492;214,64706;318,89829;
608,000;13,232194;622,264;232,50324;226,84555;277,84981;
606,000;10,477586;759,9976;210,04428;211,86189;262,92151;
604,000;26,659573;921,07031;231,02082;233,02274;267,98733;
602,000;10,350167;989,09397;253,51803;286,12426;274,57714;
600,000;6,4482226;1039,2967;256,79083;222,42994;285,65882;
598,000;22,170005;1007,2959;231,44996;245,5268;282,28844;
596,000;34,559565;957,53723;237,41366;276,54394;261,7258;
594,000;9,724606;956,84153;193,56354;272,2643;285,05979;
592,000;15,6653;865,3111;216,01775;251,84728;249,21698;
590,000;28,48582;803,53706;176,81114;235,86674;259,41419;
588,000;8,5236792;678,02217;200,52621;225,56496;267,57786;
586,000;-4,2338844;498,87199;190,57426;236,00982;260,33317;
584,000;23,09031;476,36586;219,59556;258,64299;260,34137;
582,000;4,8275308;384,33439;205,413;231,70149;262,60927;
580,000;9,4584127;373,93115;266,23584;223,71839;229,79166;
578,000;35,001715;299,23031;179,1562;201,02452;243,54341;
576,000;7,6996324;218,52798;154,60398;170,9069;220,9473;
574,000;10,150191;211,8407;161,24865;194,98443;251,45742;
572,000;13,551293;189,34525;150,22877;262,43019;184,91342;
570,000;9,4826748;188,32503;177,47305;210,43986;206,12176;
568,000;28,725055;174,15683;196,47701;208,48686;188,79058;
566,000;22,969785;197,58586;183,20441;218,51617;210,10351;
564,000;21,050484;270,36117;187,43916;177,99126;221,67018;
562,000;16,027555;261,85503;158,46604;196,5667;228,57313;
560,000;26,325014;297,83694;189,31969;212,00126;268,81467;
558,000;15,121608;342,46756;163,18832;177,80817;212,60276;
556,000;6,41683;437,31918;139,31232;137,51776;193,11587;
554,000;1,2075052;463,024;134,86919;128,08816;195,81996;
552,000;16,114464;449,81933;145,44891;136,4156;228,73779;
550,000;9,9498333;328,64642;123,22803;114,68006;205,82063;
548,000;16,093743;248,66373;149,12069;121,60841;159,86844;
546,000;17,651547;150,2201;130,37667;132,18443;161,61021;
544,000;18,810927;116,79248;122,62232;118,37195;72,62816;
542,000;26,713929;71,230986;69,551886;86,082352;84,032097;
540,000;2,6816662;20,937001;88,853403;69,034659;101,69378;
538,000;18,780069;-17,583548;47,616003;56,941721;53,281306;
536,000;15,895273;16,75567;32,884664;24,402841;66,444289;
534,000;26,024521;-2,6287281;42,876684;54,81868;24,111851;
532,000;18,843231;-3,4516969;18,716999;44,288371;2,5790149;
530,000;40,438407;11,173242;12,631818;25,928002;15,621874;
528,000;2,8313292;31,597275;51,43126;47,768004;-3,233691;
526,000;16,085517;23,374702;7,5375463;28,368172;66,12733;
524,000;12,935918;36,015048;21,812609;12,189771;23,717144;
522,000;31,814731;38,697393;24,773869;14,26029;23,720666;
520,000;19,435695;72,678603;3,3898632;40,330752;35,417933;
518,000;31,374774;83,743325;28,952446;51,344582;58,695088;
516,000;26,169338;114,80904;47,267926;38,496324;66,533922;
514,000;36,435603;112,95408;57,78137;57,701475;81,2152;
512,000;25,643362;152,23057;73,540628;80,008574;87,844937;
510,000;36,980639;149,36013;96,833293;80,570928;104,63644;
508,000;37,622128;156,88124;106,34487;82,341429;74,356922;
506,000;32,994234;182,79732;88,753489;85,278575;110,65107;
504,000;43,016951;204,28202;89,416946;90,394472;141,75481;
502,000;38,568865;187,67732;92,485145;103,49134;158,47045;
500,000;45,384889;240,27476;121,23086;138,07553;168,3569;
498,000;44,360285;245,92251;121,0947;166,57387;185,06491;
496,000;51,261409;238,12402;132,82296;189,13695;173,2765;
494,000;43,445998;262,63318;152,55929;168,46183;201,46208;
492,000;40,357132;259,38993;142,49991;201,31136;193,93151;
490,000;61,65638;299,31991;192,16952;220,73578;209,24257;
488,000;52,362892;284,29218;198,77309;189,26715;186,20631;
486,000;71,173147;327,234;215,57706;219,53961;226,71249;
484,000;49,739448;373,05305;220,88807;215,49865;181,44336;
482,000;34,176263;376,28895;208,617;222,74008;263,76036;
480,000;59,857929;369,97055;220,52605;226,04883;279,07858;
478,000;62,996305;369,23486;225,76558;217,78535;228,67177;
476,000;54,338447;378,82684;242,04675;241,4157;265,64237;
474,000;51,097254;412,02505;230,25155;252,72876;274,74576;
472,000;48,10012;401,04618;234,87911;238,06241;302,81992;
470,000;40,116723;424,18964;223,71476;250,2551;289,09015;
468,000;56,741979;441,7446;230,61712;243,12695;278,20023;
466,000;63,546188;493,30697;233,73383;238,33451;235,93613;
464,000;56,833021;518,15988;234,81534;206,66289;252,82968;
462,000;37,851667;535,17433;234,82133;219,82494;272,22432;
460,000;47,625907;563,10579;215,26895;228,50362;262,72407;
458,000;40,179565;639,89901;181,71136;269,79758;244,64912;
456,000;52,851845;685,19;188,27265;221,77123;216,59812;
454,000;62,329321;758,46559;170,60403;175,07133;249,24139;
452,000;41,115684;835,51387;216,15714;228,43632;200,24071;
450,000;42,57904;899,26191;192,34089;215,82127;240,64665;
448,000;43,528395;957,94442;166,08875;212,54313;240,10994;
446,000;55,675098;1011,3794;184,6303;194,96217;249,66231;
444,000;42,037288;1036,4665;201,5299;202,98887;246,14416;
442,000;35,565177;1009,815;207,49995;182,75191;205,53111;
440,000;44,883728;1014,7511;181,12274;205,43199;230,49073;
438,000;49,847382;1017,7185;190,16813;200,5287;252,59884;
436,000;57,83711;1004,6462;188,4458;203,13493;263,3778;
434,000;36,975083;887,17167;186,94589;174,51584;218,20055;
432,000;53,958968;828,50644;175,81335;177,72933;223,96332;
430,000;44,725475;767,42253;180,5981;179,88969;178,36362;
428,000;31,312775;678,4554;148,91592;157,00067;185,65156;
426,000;29,566876;578,28886;154,66469;164,07408;134,45891;
424,000;51,568822;541,60554;161,69745;118,19027;171,5873;
422,000;48,998224;485,1368;171,80602;142,99402;144,94868;
420,000;42,513295;466,22354;168,19196;170,3695;177,35916;
418,000;40,978403;442,03887;143,77387;189,58348;205,06031;
416,000;43,63763;455,89346;175,24663;176,31314;204,81697;
414,000;35,612424;396,72089;192,93613;177,11192;237,45082;
412,000;34,662593;342,46758;194,82881;201,93152;206,42488;
410,000;44,726665;378,41002;144,47644;178,00149;133,2243;
408,000;36,509817;376,20786;181,27526;177,64376;210,20174;
406,000;26,51545;398,18413;170,99974;221,73016;212,16795;
404,000;29,146378;488,82328;176,93453;217,42047;218,99276;
402,000;53,247063;499,77187;194,37155;220,82341;279,54319;
400,000;35,523827;573,30827;227,11355;269,5476;339,16105;
398,000;24,14168;616,81345;280,87731;292,59301;327,56327;
396,000;29,469082;727,27361;328,31192;346,28379;368,41433;
394,000;32,302919;804,97892;360,55586;376,84706;417,43701;
392,000;46,600365;906,29116;391,02036;402,82597;444,42889;
390,000;35,686607;902,78668;355,09899;408,14673;451,87965;
388,000;19,044035;853,09919;306,22838;349,65463;399,68538;
386,000;27,631065;899,35125;261,37575;287,84005;353,45099;
384,000;37,599483;825,48466;228,02303;314,88383;312,60847;
382,000;23,626446;873,06881;204,3127;248,36559;265,13023;
380,000;26,585917;895,37474;194,78646;211,34426;258,06689;
378,000;29,208846;854,43758;194,77206;187,58953;216,77374;
376,000;31,183141;856,08785;183,25429;202,39295;250,81582;
374,000;27,616359;849,95316;197,91764;219,10809;242,83578;
372,000;44,785163;778,02247;173,9683;245,13534;243,86309;
370,000;43,953291;737,73219;212,70886;232,57764;237,31073;
368,000;43,261346;737,08487;210,14312;251,06477;253,70982;
366,000;47,660041;654,00621;232,737;255,39735;292,92536;
364,000;47,823622;612,20572;211,22559;275,0765;309,25228;
362,000;46,866659;562,9549;250,46239;280,95151;318,96364;
360,000;23,559312;548,93314;229,11438;254,1813;305,8152;
358,000;47,767224;533,20236;255,31261;265,52361;359,1273;
356,000;40,028563;502,10635;252,13024;322,40823;336,56635;
354,000;54,659165;492,76024;287,50685;318,59108;374,23248;
352,000;47,824685;514,47188;293,99559;347,25639;375,21965;
350,000;43,97887;522,84332;325,54044;359,54991;407,96146;
348,000;46,739833;560,24919;337,06366;385,64;420,51632;
346,000;38,238223;550,14706;334,65071;395,56566;469,89023;
344,000;44,94613;568,07937;319,68456;414,54505;464,09061;
342,000;31,07532;560,15262;387,69088;415,95737;500,72131;
340,000;64,924697;601,86534;356,52457;461,59139;503,67414;
338,000;41,71981;555,57357;377,51961;447,56422;527,32066;
336,000;55,957164;559,19226;372,544;450,27452;483,76609;
334,000;54,110978;504,9008;373,30007;447,28204;492,04845;
332,000;55,042052;547,52182;359,45448;471,81465;485,6065;
330,000;66,767289;539,30694;400,75324;455,48714;472,60915;
328,000;50,306862;514,01494;392,15266;458,99118;516,31455;
326,000;71,757573;523,14893;369,42992;477,79539;517,09744;
324,000;53,348587;468,68149;327,51742;433,92148;507,17917;
322,000;46,378916;518,61782;394,7701;404,95987;524,88694;
320,000;54,366381;446,6209;366,77169;439,5232;491,09693;
318,000;54,394559;485,87712;386,63572;412,9413;519,75169;
316,000;54,295843;401,82523;380,38431;402,12571;485,87628;
314,000;41,795014;424,5685;373,85967;459,66769;494,47649;
312,000;47,374303;424,78597;377,64131;450,63504;471,71807;
310,000;56,234571;431,38942;402,15547;469,28495;527,79675;
308,000;62,601756;438,33471;370,38236;447,9097;490,54232;
306,000;46,28539;412,06079;407,74317;460,92708;470,2324;
304,000;52,545089;434,38161;362,57683;469,93701;493,33033;
302,000;68,967031;434,72374;398,64619;452,48959;510,27455;
300,000;55,800283;414,92111;415,77242;485,26656;511,0981;
298,000;48,289865;427,95874;370,23027;509,49016;518,13913;
296,000;42,933615;463,65174;440,17182;510,51126;576,86102;
294,000;59,794992;462,2677;428,18943;531,77949;587,24545;
292,000;45,705129;540,76856;433,05682;514,67208;589,12755;
290,000;50,083478;533,37113;436,96547;575,11801;630,71169;
288,000;60,581978;590,11225;490,73465;576,49815;646,3667;
286,000;71,896911;653,96672;571,22573;625,02772;669,59454;
284,000;60,191102;710,26805;561,80621;667,97837;687,80738;
282,000;63,031993;852,01044;539,27108;649,81308;769,31257;
280,000;54,526008;869,47837;616,27004;686,14379;766,40228;
278,000;74,29702;891,88903;665,48485;683,55875;816,7337;
276,000;58,30552;947,88902;669,31431;758,82615;811,00838;
274,000;66,234953;960,76363;651,36754;775,47671;856,76171;
272,000;53,845492;1036,1033;684,92284;764,83455;797,82992;
270,000;56,725415;959,20509;690,77186;823,2017;842,68645;
268,000;63,858386;1060,8661;698,5764;843,45045;912,06483;
266,000;70,751998;1119,2271;680,04056;906,03267;868,35731;
264,000;51,818803;1240,5642;820,60219;921,21207;875,72467;
262,000;57,28498;1377,5039;789,13383;887,53135;960,48502;
260,000;67,842879;1419,7006;779,98218;878,90345;1004,087;
258,000;70,26883;1565,3555;762,61486;893,07021;984,82585;
256,000;58,94375;1709,9221;798,7808;972,30636;981,45006;
254,000;36,784992;1860,8546;820,0974;1025,1685;1065,2216;
252,000;32,862489;2042,1035;866,3027;969,67726;1081,0185;
250,000;38,914352;2240,7703;901,09288;996,29731;1153,8519;
248,000;46,502915;2530,1535;934,01981;1031,1036;1177,8157;
246,000;64,043186;2866,7228;977,41475;1048,3894;1256,2064;
244,000;57,947258;3203,0469;1006,4447;1157,4516;1323,4101;
242,000;40,353571;3309,4317;1090,4515;1146,9398;1260,3748;
240,000;39,946806;3374,999;1123,2788;1170,5396;1372,5717;
238,000;55,815578;3280,1287;1121,4387;1194,7398;1398,6227;
236,000;34,36037;3054,606;1163,4372;1201,3808;1436,7942;
234,000;45,510836;2705,3056;1136,8311;1186,5596;1413,3187;
232,000;25,66324;2411,6577;1150,0308;1221,4712;1381,235;
230,000;19,788727;2201,668;1146,0978;1231,7513;1336,4294;
228,000;2,1871883;2074,1072;1131,9939;1143,3759;1326,6752;
226,000;2,4079823;2007,3234;1112,1145;1119,4717;1276,241;
224,000;-2,3065849;1962,7033;1074,2444;1160,1217;1345,4853;
222,000;10,659795;1945,88;1015,4865;1104,5111;1246,756;
220,000;24,482161;1915,5267;1029,2418;1082,2261;1198,8321;
218,000;-6,6264377;1836,4504;1000,0312;1046,4005;1194,0467;
216,000;15,564252;1879,3221;947,33124;968,56742;1179,779;
214,000;15,281694;1791,6454;932,81111;1000,6588;1070,9589;
212,000;6,4197127;1750,0089;902,57931;877,17741;1057,003;
210,000;-4,3217355;1666,3677;861,28455;886,88166;1026,7668;
208,000;2,8422213;1632,7653;897,40894;845,40519;1013,0588;
206,000;5,3747792;1480,7785;784,33227;865,10378;946,69245;
204,000;-10,449599;1355,8562;785,98929;781,81609;878,02656;
202,000;18,730908;1305,8409;733,11077;747,57023;906,83222;
200,000;-16,399823;1290,0655;784,37206;685,93731;874,78223;
